123,122,127,130,123,123,127,128,125,125,127,125,128,122,124,126,129,122,123,130,129,118,126,133,129,128,133,126,125,129,130,120,129,132,125,125,134,130,122,137,131,128,128,136,124,132,135,126,132,133,132,128,137,133,130,135,134,125,130,139,128,136,135,139,130,127,137,129,130,136,129,125,138,131,126,136,134,130,133,133,135,131,129,137,132,136,130,136,130,136,119,125,121,123,120,121,121,112,121,116,111,118,115,117,117,116,116,120,111,116,117,122,126,139,139,136,149,140,146,148,148,144,153,146,144,146,148,143,146,147,150,139,144,141,144,138,144,142,142,138,141,140,139,139,144,140,149,141,138,142,141,136,139,135,143,141,141,138,137,139,136,132,141,135,133,147,139,134,143,138,136,141,141,143,141,136,138,142,134,138,142,136,138,145,134,138,136,130,144,134,132,141,140,139,142,140,139,130,146,138,135,138,136,140,133,139,146,139,138,136,135,140,134,130,140,135,131,136,136,142,136,140,137,132,136,135,134,130,138,138,135,135,135,132,135,136,135,128,143,129,133,137,134,133,130,136,135,130,139,136,129,123,126,134,131,125,131,130,127,133,128,126,132,132,127,126,134,135,125,131,130,132,129,127,131,130,133,133,128,137,132,129,131,136,130,129,133,130,131,135,132,134,134,133,128,130,138,130,131,136,134,129,136,135,135,134,136,132,129,133,135,130,139,132,134,137,132,133,131,134,136,133,133,133,131,135,139,129,133,135,132,132,138,131,127,138,133,131,133,134,127,119,111,109,101,105,102,94,98,90,93,95,90,88,94,94,93,96,94,97,99,102,119,130,136,141,147,150,141,142,145,141,140,147,140,144,146,145,139,146,146,142,146,145,150,145,148,146,142,153,148,142,148,146,146,148,145,148,145,149,146,143,150,148,144,148,151,145,144,149,147,148,147,154,144,147,151,149,144,154,149,143,155,150,142,148,148,147,150,150,146,148,149,152,147,147,150,149,144,155,148,143,154,148,144,151,150,146,145,147,148,146,152,146,145,150,148,142,148,148,145,143,151,148,142,151,146,141,144,151,145,146,158,154,154,167,162,157,163,154,151,152,153,149,150,156,149,145,146,149,145,148,149,143,139,143,141,139,138,142,136,137,1
120,132,120,127,126,125,120,125,122,118,121,122,120,127,128,125,119,125,125,118,129,125,119,122,128,122,118,125,127,119,121,128,124,123,119,117,122,127,126,122,128,124,124,121,128,122,119,129,128,121,126,122,119,125,127,121,119,126,122,123,119,122,125,123,131,129,122,130,128,119,130,126,122,130,126,120,123,128,125,124,130,124,122,126,127,124,122,125,129,123,130,127,119,123,132,123,123,130,127,120,125,127,121,127,133,122,126,129,122,121,126,123,117,114,121,113,116,115,109,111,111,106,110,113,109,113,106,113,109,115,110,114,112,116,127,130,136,139,142,145,142,143,141,141,144,141,141,147,144,142,143,141,133,138,137,137,136,140,134,136,133,134,137,129,139,135,135,138,128,133,134,135,128,141,131,131,137,138,135,125,139,135,128,138,133,124,130,135,133,129,133,136,131,137,133,136,135,134,126,136,135,130,125,137,135,126,134,136,128,131,136,135,127,132,128,127,134,134,128,126,129,133,128,129,132,128,132,130,126,131,129,129,134,132,126,129,139,135,130,131,135,121,128,137,131,124,133,129,124,131,130,127,135,130,135,129,127,133,131,130,132,130,128,128,129,131,124,132,134,129,127,134,131,124,131,131,125,131,128,127,133,128,128,127,132,133,124,129,128,127,131,128,127,125,131,125,124,133,127,122,132,128,124,129,131,131,124,131,128,126,132,131,124,125,129,126,129,128,129,123,130,131,124,128,132,128,125,131,128,121,128,127,128,124,129,126,127,131,126,121,126,130,122,126,130,124,125,131,126,123,128,130,126,124,127,128,124,128,128,126,131,126,122,126,118,111,108,106,103,89,95,88,88,90,87,90,91,88,94,92,86,95,93,98,111,124,128,141,135,137,137,132,131,128,133,133,126,134,134,127,135,136,132,132,136,138,130,139,136,133,138,139,132,138,139,136,137,138,140,135,139,141,135,143,139,134,141,139,142,135,144,140,136,143,142,140,139,142,142,138,145,139,139,144,145,137,142,143,141,139,144,146,139,140,143,139,143,144,142,139,143,142,142,143,145,140,142,143,142,140,143,143,139,143,142,136,147,140,139,141,143,141,137,144,139,139,144,143,138,139,144,143,135,143,140,139,144,142,139,139,143,134,1
136,130,141,136,137,135,144,133,143,144,134,133,143,138,137,139,135,135,139,139,146,137,137,140,138,139,136,136,136,140,136,138,136,134,140,137,133,136,136,139,134,141,140,139,143,143,140,135,139,136,137,140,142,137,140,138,135,137,141,140,135,143,140,133,136,134,134,130,143,136,131,133,142,135,141,138,138,132,136,132,136,134,141,132,137,140,129,137,138,132,128,137,132,134,129,145,129,135,139,129,134,137,131,137,134,136,129,134,133,136,131,139,132,130,140,138,138,139,132,140,134,129,140,133,140,139,140,138,136,131,133,141,132,133,124,126,113,117,121,115,122,121,123,126,124,116,119,122,120,124,119,116,119,122,123,129,139,139,138,144,145,135,136,145,135,141,141,136,141,135,148,137,143,138,132,140,140,134,132,135,130,130,131,135,126,135,137,134,124,136,128,122,136,132,123,129,136,127,130,136,128,124,137,135,122,133,132,129,126,129,131,125,131,135,124,130,130,130,125,126,128,124,126,125,127,125,123,125,124,127,124,131,124,122,128,129,123,124,128,130,120,125,129,131,121,129,131,126,124,125,138,133,137,134,132,137,136,135,136,136,130,134,136,135,132,137,136,135,135,139,133,134,139,135,134,140,138,133,138,139,136,136,144,136,137,146,136,133,137,141,131,140,139,137,138,140,137,136,138,137,133,138,140,140,138,145,141,137,144,143,135,140,138,137,138,140,143,135,146,142,136,139,138,136,137,144,136,136,144,138,140,141,142,137,138,142,138,140,142,141,134,144,142,136,139,142,138,136,140,138,137,142,138,137,143,141,138,140,140,138,139,142,141,137,144,141,134,141,140,142,141,140,141,133,140,138,132,140,136,135,139,137,135,127,127,126,117,117,109,105,100,105,97,91,95,97,98,101,95,102,99,97,103,105,115,128,140,148,150,156,152,145,150,151,146,142,148,144,143,155,145,144,149,145,148,148,153,149,146,158,152,148,151,156,149,147,157,149,146,157,154,144,150,154,146,153,152,148,149,154,154,152,150,150,147,151,152,151,145,152,156,148,152,152,146,149,148,152,148,151,146,147,151,150,146,148,148,142,150,148,147,142,151,149,146,153,148,141,148,152,145,146,152,143,141,148,148,144,149,147,150,150,1
148,150,139,144,144,144,139,148,142,146,145,142,145,146,147,141,146,144,138,139,148,143,137,142,137,137,145,141,140,143,149,138,142,143,143,131,138,140,134,142,141,137,140,137,134,139,139,136,134,134,141,129,135,138,136,132,142,131,132,140,135,129,132,140,128,132,138,132,128,134,131,126,137,133,131,129,134,129,129,136,133,130,133,134,121,129,133,134,125,126,131,124,133,130,128,129,130,128,120,129,122,117,127,126,126,126,126,127,124,125,126,121,127,121,125,122,118,110,114,112,116,112,117,110,115,116,112,116,114,110,116,114,110,113,121,118,125,132,130,140,136,138,128,138,135,135,135,142,127,138,135,138,131,138,134,126,134,127,130,127,134,127,131,135,132,129,135,133,132,131,135,126,129,132,131,123,131,131,127,124,130,124,129,128,124,126,131,127,125,121,129,123,129,129,123,127,130,129,122,131,126,121,125,126,120,125,121,133,124,132,132,121,127,125,127,122,133,128,123,132,128,120,125,126,127,130,131,131,120,129,122,129,124,136,123,125,127,125,127,124,120,126,134,126,128,125,131,120,118,129,135,147,143,152,147,146,150,144,145,146,148,145,146,153,144,140,147,143,141,142,148,142,140,147,144,139,143,145,138,139,142,140,139,143,146,137,141,140,136,140,139,138,140,143,142,135,142,139,135,146,143,134,136,141,133,135,145,136,135,141,134,134,137,134,133,134,140,137,135,140,135,138,132,138,133,133,137,133,132,134,136,132,131,136,131,132,136,134,131,137,133,127,133,129,129,130,136,129,126,134,133,126,134,137,130,130,131,133,130,133,133,125,135,128,118,116,114,108,103,108,103,94,96,92,87,92,90,88,94,92,90,93,89,93,98,108,120,133,134,138,138,137,135,138,133,129,135,137,135,136,134,134,132,137,132,134,134,138,134,138,140,137,139,138,138,134,140,137,138,139,141,136,138,142,138,133,139,139,136,138,139,138,136,142,135,134,142,138,134,138,136,135,135,138,135,132,139,136,138,136,140,137,138,141,139,137,141,140,135,140,140,139,141,142,141,138,142,140,139,140,144,139,139,141,140,141,142,146,139,140,143,137,139,140,140,138,139,139,136,140,139,135,135,135,128,131,132,132,131,133,135,136,1
118,112,121,120,116,115,119,116,118,115,120,116,117,114,119,120,123,118,119,122,118,118,122,118,119,121,122,116,116,129,120,121,117,116,119,117,125,117,124,122,120,117,123,122,120,122,123,119,125,124,117,123,122,129,115,119,125,116,121,125,118,121,122,121,118,122,122,119,117,122,120,117,126,120,123,125,119,114,117,126,125,122,130,120,127,123,127,116,125,124,121,129,128,129,122,121,122,121,122,124,121,123,136,121,119,128,122,117,122,127,116,115,119,113,118,119,114,117,119,111,112,117,113,114,119,120,117,120,118,118,124,133,144,137,144,140,139,146,144,138,142,143,139,148,142,141,146,144,138,138,140,135,137,139,136,129,143,133,133,135,137,139,129,136,142,130,140,137,132,134,135,140,131,134,139,130,138,140,133,137,140,129,131,137,134,134,136,137,138,134,136,135,124,143,133,131,136,137,130,140,139,132,137,134,141,131,133,141,132,138,140,125,134,140,140,136,135,136,126,138,132,136,135,130,138,126,135,139,129,133,140,134,127,144,133,133,145,135,132,140,138,136,142,134,132,135,143,139,139,141,126,122,128,128,124,129,127,127,127,124,128,120,132,133,123,129,126,128,124,127,129,122,130,130,121,125,128,126,125,130,125,123,128,127,124,129,128,128,123,129,126,127,130,125,124,130,124,125,126,128,128,126,132,125,124,129,124,126,125,129,125,125,129,125,126,130,128,124,130,126,127,128,129,130,125,127,127,122,126,129,127,129,130,129,123,133,130,125,129,132,129,129,135,130,126,131,132,127,132,132,130,129,134,133,129,133,133,128,135,129,123,119,124,120,110,113,108,100,102,101,92,97,95,91,95,97,92,104,103,97,116,125,126,141,139,143,137,138,139,132,139,134,132,137,134,133,135,138,138,137,147,139,137,143,141,142,142,142,142,143,145,147,140,145,148,146,146,146,143,141,152,145,143,149,145,148,145,150,145,143,150,148,140,149,147,150,143,148,142,147,146,146,147,142,149,143,150,145,145,143,152,147,141,148,145,147,144,148,144,144,147,148,142,149,145,144,145,150,139,146,149,144,144,147,146,144,145,144,145,141,145,144,138,143,143,135,141,137,133,137,139,139,136,143,138,135,144,133,133,137,140,95,1
125,132,131,125,131,128,129,128,133,136,131,130,132,132,122,131,128,129,131,134,127,125,130,126,125,134,126,130,130,133,125,128,129,126,123,133,128,132,129,128,124,125,132,123,130,127,131,124,132,129,123,125,133,126,124,133,128,132,128,129,127,125,126,126,124,130,131,127,126,133,122,125,132,118,131,128,124,124,128,134,119,125,130,117,130,128,126,128,126,132,126,127,135,122,130,126,126,123,129,125,128,127,127,125,129,126,126,119,118,117,114,120,112,112,116,114,110,113,112,110,116,110,110,114,112,115,121,119,124,132,131,135,136,133,132,137,134,134,133,140,134,136,134,136,128,134,141,129,130,137,127,130,132,134,123,129,136,130,128,134,122,129,129,132,123,132,137,130,134,137,129,132,134,136,125,138,132,129,132,134,134,126,138,136,130,128,135,133,131,137,128,136,135,136,124,136,128,129,138,136,128,135,134,126,128,140,127,127,136,132,129,127,135,132,122,136,131,127,138,133,124,135,134,120,130,135,130,133,131,135,128,134,130,126,128,133,132,130,132,132,129,129,136,130,128,140,126,126,135,123,137,127,130,129,122,130,126,120,128,128,127,125,129,126,126,127,123,120,126,127,123,127,128,123,126,128,124,123,124,128,122,125,124,124,122,122,123,119,127,124,120,124,126,123,120,125,122,125,128,125,124,123,128,123,122,127,127,120,125,124,122,124,125,120,125,129,125,124,129,124,126,129,125,125,125,127,127,122,129,124,125,126,127,121,126,130,125,120,129,126,123,128,127,125,122,129,122,126,129,125,122,127,126,121,125,129,126,123,122,115,112,110,106,99,100,99,88,92,90,88,94,91,91,94,95,98,110,120,122,134,134,132,136,134,131,133,135,135,131,133,129,127,137,137,133,131,131,130,130,136,137,137,139,133,136,138,136,134,139,136,136,136,139,133,136,139,137,138,137,140,138,138,140,142,136,143,140,141,136,140,140,141,139,144,136,141,139,139,138,143,138,139,140,142,134,144,140,139,140,140,140,142,142,140,137,144,142,137,139,141,142,140,142,141,140,144,140,139,142,140,140,142,142,139,137,145,139,141,140,145,138,143,140,143,136,145,140,137,145,138,141,139,143,139,139,142,141,135,143,139,141,149,1
121,121,117,123,122,119,121,124,124,118,121,124,118,124,124,119,120,126,118,123,125,125,120,124,128,120,125,121,119,122,128,126,122,126,121,121,128,124,121,125,129,123,119,127,121,119,131,126,124,125,129,123,125,123,127,120,125,125,124,124,128,122,125,127,125,126,127,125,124,124,132,121,124,121,122,126,123,126,123,123,129,125,124,126,126,125,125,125,122,135,123,124,124,127,132,124,130,127,129,129,135,127,126,132,129,122,127,129,120,126,122,118,120,125,118,122,121,120,121,120,116,120,124,119,124,132,131,134,144,132,135,147,142,141,139,146,138,139,145,137,143,142,140,138,140,141,140,144,139,145,136,141,140,140,146,139,129,136,137,138,135,139,136,132,134,142,134,134,138,129,139,137,131,135,130,134,130,135,134,127,137,134,136,131,141,135,131,139,133,132,130,137,128,136,133,135,136,135,132,133,140,133,131,136,138,133,132,136,138,134,138,138,130,136,135,139,127,140,132,128,135,136,137,135,140,132,133,135,137,127,137,133,130,132,137,127,130,137,137,133,141,137,133,134,133,127,137,132,132,139,129,127,125,130,132,128,128,131,130,128,131,130,127,128,131,127,129,131,133,127,131,131,127,133,130,130,127,132,131,127,134,131,129,132,137,128,131,132,132,129,131,130,127,136,133,129,131,132,132,130,133,131,128,134,132,127,133,130,130,128,136,133,129,137,134,128,132,134,130,133,132,136,133,133,134,128,134,137,131,130,138,132,130,136,135,132,136,132,125,133,137,131,134,135,130,132,136,134,126,135,133,130,131,138,131,128,126,119,111,111,111,107,101,98,96,94,96,94,95,97,92,101,102,98,107,120,126,140,146,146,142,144,144,136,142,141,136,141,140,144,136,146,142,136,142,142,140,142,144,138,140,142,148,136,142,143,143,145,147,141,145,146,147,140,148,144,148,144,152,143,146,144,143,142,151,145,146,143,145,139,148,147,148,141,150,144,138,145,148,144,146,150,142,142,145,146,144,144,150,139,146,147,141,143,145,144,139,143,144,144,142,146,143,138,144,142,139,146,141,138,144,141,141,140,149,139,141,141,144,135,144,139,140,140,144,142,138,140,141,134,140,138,130,136,137,137,130,135,139,132,137,140,1
131,129,123,135,121,126,132,124,131,132,128,127,131,130,130,132,129,128,128,137,125,128,131,134,122,131,124,128,129,139,127,125,127,130,132,125,136,127,132,139,126,127,133,135,128,131,135,129,128,136,127,130,131,129,131,131,135,128,135,132,128,135,131,128,136,137,132,135,128,134,129,128,133,133,132,137,131,136,134,137,127,137,132,138,134,138,137,132,131,130,133,132,137,129,136,133,135,134,135,132,130,133,138,127,134,124,131,123,126,124,121,120,124,119,122,122,118,119,118,118,117,118,121,120,125,127,139,146,140,139,145,144,141,142,148,140,141,144,145,140,149,148,139,146,143,145,145,138,136,142,142,139,136,142,144,137,142,137,138,138,140,139,138,142,134,132,144,138,133,138,139,141,130,137,143,135,139,138,134,137,137,139,129,141,139,141,137,139,135,134,135,137,133,138,136,138,133,142,135,139,135,133,140,133,138,129,142,131,131,137,138,132,130,142,131,133,135,138,133,131,140,129,130,135,133,133,135,138,130,133,138,128,139,135,132,132,140,130,130,132,137,129,135,136,129,134,138,127,134,134,125,132,137,136,130,135,136,138,130,141,135,138,135,138,133,136,139,132,133,137,135,131,140,134,133,136,138,133,135,137,136,132,138,138,132,138,137,135,138,136,137,135,138,139,134,141,136,136,138,138,135,133,142,135,133,137,137,137,133,139,135,140,137,138,134,140,139,136,142,138,137,136,138,139,138,141,138,134,140,142,137,143,139,140,136,139,137,135,142,139,136,140,138,138,133,139,135,137,141,135,136,140,136,135,126,129,120,120,117,112,103,103,102,99,97,96,96,101,99,96,100,102,97,108,119,131,137,147,146,142,148,143,140,145,144,141,140,146,142,135,145,140,140,142,145,141,143,145,143,141,144,148,138,148,143,144,141,149,139,145,146,148,140,147,144,144,142,147,139,144,146,143,140,145,143,145,142,149,143,144,145,145,142,149,147,141,144,147,142,144,145,147,140,150,145,143,144,149,141,147,146,145,140,149,140,146,146,141,139,149,143,146,139,148,142,144,146,146,140,143,144,142,141,145,144,137,145,143,143,142,144,142,143,145,141,138,149,141,144,142,143,134,137,136,135,139,137,138,131,137,139,146,1
128,129,132,129,131,135,124,131,134,120,124,134,126,124,133,135,121,127,131,129,126,127,128,130,128,126,127,126,125,121,127,132,127,127,127,130,124,128,137,125,126,129,129,122,126,129,127,128,126,122,125,130,126,128,125,131,122,123,133,127,125,124,125,122,129,128,122,126,128,122,127,128,124,124,130,122,123,126,128,125,122,127,120,125,126,123,127,124,119,112,120,118,111,118,113,113,112,110,105,109,115,106,117,117,109,116,111,112,116,119,119,134,135,131,136,138,136,138,135,138,134,138,138,136,133,137,140,133,135,140,132,135,145,130,135,136,129,130,133,131,128,133,126,132,129,132,129,130,136,131,126,132,132,129,131,136,126,129,137,131,125,132,130,125,139,131,124,134,130,130,125,136,131,124,134,127,127,130,135,127,132,132,134,125,133,134,130,128,136,126,135,133,133,129,133,127,133,129,133,131,126,130,132,126,132,131,129,132,133,131,131,132,127,127,129,129,125,138,130,132,129,130,122,131,137,133,126,132,132,128,128,135,129,125,134,123,126,129,127,126,127,132,122,129,136,126,120,129,134,127,130,128,126,121,125,126,124,129,126,128,121,130,127,119,128,126,124,127,125,128,122,129,125,125,126,129,124,127,128,121,126,128,126,124,127,127,124,125,130,124,124,129,127,125,132,129,122,130,129,125,125,130,126,122,132,127,123,129,129,128,129,130,127,123,134,128,125,131,132,127,125,130,128,126,132,129,122,134,130,126,127,127,129,128,134,129,124,133,127,123,125,122,115,110,111,100,99,97,95,93,95,92,99,98,93,96,95,99,111,126,125,137,137,137,135,135,135,130,132,134,130,138,133,133,134,138,136,132,138,134,134,137,136,136,135,138,141,132,140,141,135,143,139,137,141,139,141,135,142,140,136,144,141,137,144,139,139,135,145,140,142,145,140,138,142,140,142,137,142,140,140,146,140,137,145,140,140,140,144,141,141,145,145,138,149,141,142,139,146,138,136,146,141,138,146,139,137,144,142,137,140,144,143,136,148,140,140,144,140,141,139,145,141,140,143,141,139,143,139,141,136,144,138,138,143,140,138,143,141,141,139,145,140,138,140,137,130,137,135,129,137,140,133,138,139,132,132,139,136,133,132,144,1
131,128,125,127,123,125,133,127,126,124,129,121,128,128,125,124,133,129,125,124,128,127,125,132,127,124,130,128,125,126,127,119,130,129,121,126,131,132,126,126,129,121,132,125,118,124,133,123,129,125,128,122,120,124,120,125,124,125,131,126,128,122,125,125,121,132,131,123,130,127,126,129,127,133,120,132,124,124,128,128,128,127,128,124,125,127,130,123,132,133,122,118,119,120,116,119,113,113,120,113,115,113,113,113,113,110,114,115,110,113,118,114,118,120,122,125,139,135,138,148,141,141,145,145,145,145,147,142,149,152,142,137,148,142,141,142,139,132,137,140,138,136,143,140,136,138,143,138,145,140,142,139,145,139,136,144,135,142,138,144,133,135,140,137,133,141,135,136,135,140,133,137,139,135,131,139,133,136,135,135,136,135,134,136,134,133,140,131,139,141,134,132,142,133,136,133,139,134,140,140,136,136,142,134,132,142,136,136,129,140,130,135,134,136,135,139,134,136,136,137,127,136,133,130,139,135,139,134,139,135,129,134,138,128,137,135,131,132,138,129,133,132,138,125,133,137,128,130,136,129,126,126,124,127,124,123,128,126,121,128,126,125,125,129,123,127,127,129,123,127,128,126,125,127,127,123,130,126,127,128,126,125,126,128,123,126,129,127,126,128,127,122,127,126,123,128,127,130,126,129,125,123,133,127,125,126,131,125,128,129,130,123,128,130,128,128,131,125,127,128,128,126,131,127,125,131,127,128,124,130,126,124,130,129,127,129,130,128,128,131,123,119,125,115,110,112,107,95,98,92,88,92,92,86,91,89,89,93,91,92,95,93,101,109,122,128,142,140,140,144,142,134,136,138,131,134,141,134,138,144,136,136,142,135,134,139,142,139,143,143,146,138,143,140,141,140,148,141,144,146,143,137,147,143,139,142,145,143,142,146,142,143,146,147,139,145,146,143,144,146,143,142,146,148,140,152,146,143,145,150,141,146,149,144,145,148,147,142,147,146,144,143,150,144,144,148,148,141,147,148,141,145,145,148,138,151,143,142,145,147,141,143,145,141,141,148,143,140,147,146,141,144,147,138,143,141,142,139,145,146,138,144,143,143,141,143,141,138,144,147,137,140,142,138,139,139,132,134,137,137,133,132,1
132,129,139,133,136,137,138,132,137,132,131,135,134,131,132,137,131,131,138,135,135,138,145,132,136,139,132,132,139,136,135,143,139,132,135,137,134,135,132,140,138,134,135,129,133,134,131,139,137,136,136,138,130,128,135,133,141,137,137,134,138,138,136,133,140,136,136,145,141,136,135,138,133,134,132,143,138,141,141,132,137,140,137,130,138,137,134,136,139,133,142,140,133,134,131,136,129,139,131,123,129,127,123,131,127,127,124,129,126,121,128,120,122,128,118,126,131,124,123,123,122,128,134,136,139,145,138,141,141,143,140,147,143,133,142,138,138,139,144,144,140,145,138,136,136,141,142,144,138,138,140,138,139,129,139,141,133,137,137,132,133,138,139,135,131,136,131,139,134,131,133,128,137,136,135,135,133,138,135,137,138,132,135,132,136,133,132,134,132,137,140,135,131,140,134,135,135,138,130,136,134,134,129,131,132,134,128,132,131,128,132,132,125,133,129,125,131,135,125,127,129,130,126,131,135,129,125,136,133,124,128,134,127,131,129,126,131,128,130,123,133,131,123,131,132,124,125,123,132,123,132,134,141,138,131,139,143,134,137,141,131,135,142,140,133,141,142,134,142,144,139,134,141,136,131,138,138,129,133,137,128,133,133,127,127,135,130,127,131,133,123,127,133,132,127,132,135,128,132,132,130,131,135,129,129,131,134,132,133,139,131,138,136,133,134,136,129,132,143,134,128,138,135,132,137,141,135,133,139,139,132,137,139,127,139,139,132,136,139,137,131,142,139,133,137,141,134,134,125,121,112,117,109,100,101,100,91,90,92,85,92,90,87,93,93,88,94,93,96,107,114,129,145,147,146,152,153,142,145,144,141,143,147,143,141,146,146,142,146,150,143,142,149,143,143,150,152,141,149,152,143,147,149,149,142,153,148,140,150,152,145,150,154,144,146,152,147,144,147,150,145,145,152,145,148,152,150,148,151,152,145,154,151,146,150,153,148,147,155,155,147,152,151,140,149,151,145,148,154,150,146,152,152,146,146,154,146,147,148,147,141,148,148,143,144,151,142,141,148,145,142,147,145,139,146,148,137,142,149,143,142,144,138,134,138,141,128,136,138,134,136,137,135,131,136,137,130,135,139,133,134,149,1
122,126,122,124,128,120,124,124,123,127,123,131,122,123,132,125,123,127,130,124,125,122,119,123,129,124,125,126,127,130,127,131,131,126,130,126,127,126,125,124,133,126,129,127,131,129,132,135,127,126,130,124,128,129,127,127,127,130,123,129,137,129,125,133,124,121,122,129,123,132,126,131,132,128,130,131,124,127,128,124,130,121,124,136,122,127,129,126,125,125,132,125,126,127,123,123,134,131,122,131,130,130,125,127,127,117,118,116,115,114,111,112,117,116,116,107,117,114,112,113,119,117,124,133,134,137,143,137,137,141,143,133,140,136,130,131,138,132,133,143,141,135,146,136,131,134,138,127,131,141,135,125,142,134,129,137,132,131,131,138,133,136,134,139,130,137,134,134,131,138,132,129,137,131,133,134,134,126,133,134,131,131,131,129,130,128,127,126,126,133,127,134,130,136,123,139,132,130,127,132,127,129,130,128,130,129,130,125,128,132,124,135,131,129,126,131,123,125,135,131,120,135,129,127,130,134,126,126,126,131,124,132,130,120,130,123,129,127,132,129,121,130,130,128,127,134,129,126,134,127,132,129,129,135,132,127,126,131,134,127,131,135,126,130,136,129,126,135,132,128,130,136,126,130,133,131,132,135,131,127,135,135,127,133,133,132,127,135,132,126,136,129,130,132,129,130,137,136,132,131,133,131,130,134,133,128,131,140,129,135,135,134,131,136,133,130,138,133,131,131,134,134,132,137,135,130,134,138,128,134,132,129,131,133,135,133,134,137,127,131,133,132,130,139,132,133,136,133,130,140,136,136,137,134,133,127,130,127,114,121,111,111,103,111,101,101,105,104,96,105,111,103,128,137,141,139,147,140,132,139,140,129,137,137,134,135,143,135,135,138,141,134,140,139,139,135,143,134,139,142,142,138,146,141,138,147,143,143,142,147,144,141,147,148,139,150,143,145,140,148,144,139,145,145,141,145,149,139,148,145,144,140,148,142,142,147,147,143,144,145,146,141,147,142,141,144,146,140,148,145,145,141,147,143,140,145,147,138,145,143,141,140,145,144,138,145,143,138,144,142,141,143,144,141,137,145,142,143,143,142,140,141,145,138,143,140,143,137,142,140,139,142,145,136,142,141,141,138,144,142,136,142,1
124,127,133,131,132,133,133,134,128,132,128,128,139,130,127,131,131,131,130,132,130,132,131,132,127,132,131,128,130,132,128,125,132,131,128,135,132,129,130,138,128,129,134,131,132,134,127,130,129,131,126,131,133,128,129,139,131,127,133,132,129,132,131,124,129,132,130,129,136,134,128,134,134,129,136,131,131,128,132,137,129,133,132,126,134,131,126,130,131,132,129,138,129,130,127,134,129,131,130,124,127,131,132,129,129,126,131,127,132,125,129,131,130,125,127,137,126,129,130,123,134,128,133,126,132,129,119,133,133,128,129,128,127,125,129,130,124,132,131,127,128,136,131,126,131,129,122,134,122,123,128,128,122,126,128,121,126,124,118,127,124,120,129,126,125,131,138,129,131,138,137,130,142,138,133,132,138,131,138,141,139,143,145,139,139,138,137,133,132,144,135,135,138,129,133,132,133,127,133,137,133,141,141,133,138,142,136,130,135,137,128,134,138,129,136,134,130,130,132,133,128,133,133,131,134,138,133,132,135,132,134,133,134,130,133,136,123,130,133,134,130,133,135,128,132,132,130,140,130,132,136,127,133,137,130,129,134,134,124,135,133,124,130,133,128,128,134,130,128,133,134,124,132,136,124,132,136,132,128,132,133,127,135,137,128,133,135,129,128,131,131,127,135,134,126,130,136,129,128,133,133,129,136,138,125,132,136,129,127,136,130,131,134,136,127,135,138,126,131,133,136,128,136,132,127,133,137,127,133,135,128,131,134,134,130,137,136,127,136,137,130,135,137,133,128,134,136,129,133,136,128,135,136,131,133,135,133,128,134,137,127,134,136,129,129,137,134,129,136,135,130,135,140,129,133,138,132,130,135,137,127,137,137,130,136,139,132,134,137,138,129,136,137,125,130,129,111,108,113,103,94,102,98,87,94,90,90,93,86,90,100,94,100,116,118,130,146,143,134,145,143,130,139,144,136,141,145,141,139,141,146,135,144,145,140,141,148,143,137,146,150,136,147,146,138,142,144,139,143,145,147,143,149,149,139,147,151,143,145,147,147,141,147,150,144,148,152,140,143,151,146,144,147,148,136,150,156,144,149,152,143,142,155,150,145,150,153,142,146,150,145,148,150,149,148,147,149,143,142,147,137,130,1
140,138,141,136,142,143,141,128,137,136,130,133,135,133,141,137,136,132,137,134,127,136,133,137,134,134,128,128,128,141,131,132,133,130,129,135,131,127,126,134,130,135,131,125,137,133,131,132,130,131,132,131,131,121,132,130,125,128,131,126,128,130,128,125,128,128,128,132,134,125,126,124,126,123,131,129,131,127,129,126,122,127,124,119,130,128,129,130,131,125,122,125,127,127,128,127,126,128,129,126,123,130,120,127,127,130,124,126,121,120,127,129,125,121,125,127,119,121,129,124,124,126,128,127,128,126,120,129,128,122,127,126,122,120,119,124,114,122,128,117,118,114,116,122,120,120,121,119,121,123,121,130,133,132,127,133,137,128,132,135,131,128,140,131,130,130,132,126,133,134,125,130,131,133,125,129,121,124,129,131,125,125,129,127,122,128,131,122,132,133,126,138,131,126,130,132,125,130,133,136,125,133,132,131,129,134,130,131,136,130,127,138,135,128,134,131,132,130,132,130,126,132,131,127,130,133,127,131,134,123,124,129,132,129,131,131,129,127,127,128,127,129,131,125,132,131,128,125,130,130,141,123,132,135,124,132,133,131,126,131,133,126,133,135,127,132,134,131,131,133,135,126,135,137,124,134,136,130,129,131,129,126,136,133,124,133,133,122,128,135,128,127,133,131,125,131,137,124,129,133,128,123,133,132,122,130,135,123,125,133,127,126,131,128,122,132,134,121,126,133,127,126,133,127,123,129,127,118,127,132,123,127,131,125,121,129,130,121,129,133,123,125,132,127,126,132,130,125,132,132,124,131,133,124,127,133,132,127,134,136,126,135,138,126,129,132,132,127,136,134,125,135,135,126,127,135,129,126,135,125,116,119,114,102,109,105,96,94,94,86,94,93,85,92,94,86,98,100,103,125,137,133,138,145,138,137,142,138,128,138,138,132,137,141,133,134,141,137,134,143,138,132,141,142,136,139,141,141,136,145,140,129,141,143,130,143,146,136,138,143,139,134,143,144,134,143,142,136,139,143,136,134,144,144,135,143,141,135,142,145,137,137,142,142,136,141,142,135,142,144,140,140,144,142,135,143,141,134,141,147,137,137,146,136,140,143,140,133,141,142,136,137,146,135,134,141,140,132,143,142,130,146,1
128,125,124,124,126,121,125,126,115,117,123,115,115,125,128,117,122,124,121,125,126,121,123,126,118,116,117,121,120,125,122,115,117,121,120,126,125,122,119,122,122,120,119,121,119,118,122,124,120,123,126,116,119,124,117,121,122,120,120,124,120,117,117,121,119,122,119,122,116,116,119,122,123,121,117,124,123,117,115,128,122,118,121,130,118,116,127,120,120,126,127,120,124,121,122,118,125,123,126,125,120,121,122,126,116,124,129,124,120,126,121,120,126,129,125,127,130,120,123,129,125,122,129,125,119,122,118,109,118,119,112,119,119,111,117,117,113,118,114,113,118,113,122,129,131,131,141,135,133,144,143,139,143,144,135,137,149,142,141,139,138,135,130,138,129,137,134,135,126,139,137,127,135,134,135,139,138,131,130,128,140,129,133,146,141,137,132,125,126,131,132,127,143,142,136,137,141,136,135,139,131,130,132,133,129,133,139,132,133,132,132,133,133,132,127,132,135,129,133,134,127,129,127,136,131,134,131,123,131,126,134,129,136,129,130,132,132,127,138,138,126,130,134,126,131,130,131,126,129,134,137,138,131,132,140,133,136,138,131,129,136,137,124,136,140,131,129,139,134,131,137,137,128,133,136,130,130,135,132,130,137,133,126,135,135,126,132,137,129,129,133,131,127,134,134,126,130,134,127,129,132,131,123,133,131,120,131,138,125,128,134,132,126,135,133,123,130,134,123,128,135,123,123,133,130,122,134,134,125,133,134,128,127,132,128,125,132,135,124,133,131,124,128,133,127,125,132,132,122,131,135,122,127,132,130,128,136,133,122,132,133,123,129,134,127,124,134,131,128,130,134,125,122,124,112,114,116,107,96,100,98,86,95,89,87,92,84,85,92,85,91,93,93,113,127,126,139,140,135,138,142,136,130,137,135,128,135,139,130,134,138,134,132,144,142,132,137,144,135,141,145,137,136,140,142,136,143,139,134,139,143,138,135,145,140,132,142,143,135,142,144,138,138,141,137,137,148,143,139,146,147,137,141,142,140,137,145,143,138,145,148,139,144,146,139,140,148,145,137,144,148,135,145,147,140,140,148,143,140,145,143,133,140,143,138,137,143,139,135,139,141,131,141,145,136,137,143,136,138,143,137,143,1
129,136,138,134,133,140,141,137,138,140,133,134,134,135,131,140,134,131,136,138,138,138,138,141,138,138,133,137,136,137,139,140,140,135,134,137,140,135,140,139,132,138,137,134,138,140,138,137,145,140,132,137,143,136,133,140,133,143,140,134,134,137,138,141,140,141,139,144,136,132,141,139,139,134,143,137,135,142,139,135,134,144,134,134,141,139,132,135,144,135,137,144,138,139,135,130,127,130,137,128,126,128,123,128,129,126,131,130,128,132,125,125,131,125,131,134,144,142,150,144,145,139,150,141,144,147,148,139,144,149,142,145,149,151,144,145,144,139,140,148,139,138,142,140,141,138,137,144,143,147,137,141,141,140,134,143,139,138,137,143,135,144,136,141,137,147,143,139,145,141,137,138,144,137,139,141,139,135,139,135,137,140,137,132,133,136,138,136,134,140,132,136,134,133,140,140,140,142,137,139,130,133,143,134,131,136,131,130,139,139,134,134,139,133,131,136,126,124,131,134,134,134,135,128,134,128,136,136,133,130,134,134,129,136,136,136,130,135,136,126,134,136,129,126,129,128,123,127,132,130,143,135,136,138,133,135,136,132,136,138,132,133,136,134,137,141,133,131,139,139,135,139,135,134,138,138,136,133,139,138,135,141,136,132,136,138,134,134,138,136,131,140,139,133,138,140,136,131,137,136,132,139,138,132,138,141,135,135,141,140,136,138,136,138,140,139,135,134,139,139,134,142,138,132,138,137,134,142,142,137,135,142,140,134,142,142,133,138,140,139,137,135,139,132,140,132,125,125,118,108,106,103,97,92,94,90,92,96,92,99,99,92,105,115,121,134,148,145,146,149,141,139,144,140,133,140,139,140,138,141,136,137,145,140,134,147,142,138,139,145,143,142,147,145,140,146,144,138,145,146,143,143,146,142,141,147,147,142,145,147,149,146,146,141,144,146,147,143,149,148,143,145,147,145,143,146,148,141,148,148,142,148,146,143,148,150,147,143,146,148,146,147,149,141,148,150,146,145,152,150,145,145,145,142,146,150,147,145,149,144,143,147,145,146,144,147,142,143,149,144,142,151,142,144,146,145,141,141,147,141,142,146,145,144,145,144,144,145,146,145,143,146,144,140,146,148,137,145,145,140,140,120,1
137,126,125,124,133,128,125,129,128,127,125,126,128,127,130,125,131,130,129,126,134,125,125,129,133,129,129,137,126,128,126,133,134,128,127,129,134,126,123,130,128,128,129,139,129,128,131,137,131,133,129,129,130,129,130,128,136,126,130,130,136,126,137,132,128,128,131,128,135,127,132,127,131,131,119,130,133,127,128,134,131,127,129,130,133,132,132,126,134,132,125,122,136,135,127,132,129,135,132,131,130,125,133,129,123,124,120,116,116,119,123,117,119,118,117,121,119,121,118,118,118,132,133,133,145,136,134,137,137,142,137,140,148,140,139,141,130,140,136,135,142,146,140,136,135,141,134,141,136,130,138,140,134,128,134,130,131,135,132,136,137,134,131,128,138,136,131,132,141,130,136,143,131,136,138,134,134,137,133,137,138,138,135,135,139,132,132,131,137,131,136,133,139,135,137,131,131,135,138,132,135,138,133,132,133,131,128,131,138,133,136,134,130,130,140,130,132,133,131,132,136,132,129,132,139,136,135,134,131,128,137,135,129,134,132,125,129,137,131,135,132,131,131,133,133,126,128,136,129,129,149,137,133,139,133,132,138,134,133,135,135,134,133,139,137,133,141,134,134,138,134,134,138,135,137,133,139,138,134,140,139,132,134,142,135,133,138,137,140,141,136,138,138,137,134,139,139,139,135,142,139,138,137,140,137,134,146,139,133,139,141,138,142,142,136,133,142,138,136,142,138,135,143,138,138,136,140,141,137,145,138,137,142,138,136,143,140,139,141,140,143,139,143,142,142,140,136,139,134,144,143,135,139,132,127,126,122,108,104,109,102,94,99,96,89,98,96,100,100,106,110,128,135,143,150,150,145,140,149,140,139,148,139,137,144,145,140,142,144,141,146,147,143,142,149,143,145,144,145,141,146,147,143,146,146,145,141,146,149,141,147,151,143,145,152,149,140,149,150,148,144,146,145,144,146,146,145,146,149,146,147,151,142,144,151,143,142,150,145,144,148,144,146,148,148,148,143,149,149,141,150,150,143,143,146,147,145,145,144,144,148,143,140,148,146,143,143,144,144,142,142,144,144,145,142,143,141,145,148,139,145,144,142,144,142,136,139,145,140,136,143,143,140,143,142,137,139,144,137,138,141,136,1
133,137,129,129,129,128,125,132,136,127,135,129,129,129,135,128,125,129,140,126,129,130,121,131,130,126,126,134,133,124,127,135,130,127,133,135,130,130,132,128,126,135,129,127,129,130,132,129,127,130,131,132,133,131,129,133,132,130,127,134,135,129,131,129,128,127,128,128,128,123,123,132,123,126,118,121,124,121,120,126,125,125,125,123,125,125,125,123,133,138,139,139,141,137,134,140,139,130,146,137,132,141,137,136,134,136,141,129,135,141,137,135,141,129,130,135,131,137,136,136,127,139,136,136,136,137,139,139,135,142,129,136,143,136,134,138,129,136,138,132,131,136,137,131,139,140,129,128,138,135,130,137,135,125,137,136,128,127,134,137,135,130,136,130,137,133,132,134,137,133,129,141,138,130,134,133,131,131,132,136,135,131,132,127,132,136,134,135,134,131,131,133,139,132,134,132,126,133,132,130,130,133,129,125,127,135,128,129,131,132,131,140,130,128,142,134,130,137,133,131,129,127,135,126,129,128,132,131,132,121,132,134,129,128,139,131,128,131,125,121,126,129,124,132,132,122,127,126,122,120,130,136,136,133,132,131,128,132,137,135,134,137,136,131,138,133,130,134,137,133,135,135,133,133,136,140,132,137,140,136,136,138,132,133,139,137,133,135,137,136,139,137,135,138,135,136,135,140,137,134,141,135,135,142,139,139,133,141,137,137,140,137,134,139,139,135,135,134,126,119,119,116,113,112,105,98,98,99,96,97,97,93,102,101,94,105,106,111,121,140,147,145,151,146,141,145,146,139,141,141,144,140,145,143,141,147,149,142,144,149,142,145,147,146,143,147,149,143,149,147,149,147,149,148,147,154,150,146,149,146,145,149,149,147,147,154,149,143,148,149,145,154,151,145,147,151,147,144,151,146,146,151,147,145,145,148,146,146,150,145,144,153,146,144,148,146,147,148,150,143,145,148,148,143,146,147,147,144,149,142,147,151,142,143,147,145,145,146,146,143,142,149,144,143,146,146,146,146,145,140,141,149,140,143,141,144,143,140,144,142,138,142,141,138,144,140,141,141,144,142,141,139,137,138,140,141,136,141,143,137,139,137,138,137,139,136,134,142,134,132,135,134,129,122,130,133,128,131,133,128,132,140,1
126,122,137,125,127,126,128,130,133,127,124,131,126,128,127,130,124,127,132,135,124,127,132,128,129,131,132,128,127,133,123,128,130,123,134,138,130,128,134,125,117,127,127,121,135,132,131,131,136,124,129,132,131,123,136,130,122,127,131,124,124,134,129,126,132,134,125,126,133,124,133,130,132,130,130,135,124,133,132,131,132,132,133,124,127,132,132,133,127,135,131,135,128,130,134,124,129,130,137,128,131,136,126,127,137,127,130,135,130,133,132,125,133,129,129,131,132,130,131,131,127,136,121,122,131,122,119,122,124,115,118,118,118,123,125,119,121,122,121,124,124,118,123,124,125,134,133,136,138,140,144,140,142,147,137,137,148,141,140,142,137,141,147,145,137,139,143,134,137,146,132,129,146,135,133,138,133,143,134,137,132,134,135,134,133,136,141,135,134,134,138,135,134,139,137,133,143,129,136,136,136,134,133,141,131,139,137,129,138,135,136,132,141,137,132,133,136,138,138,139,139,142,133,130,138,138,133,133,140,139,133,133,135,133,137,136,135,139,137,133,127,139,134,130,135,137,138,134,134,137,129,129,133,127,127,130,130,126,130,132,126,129,129,131,130,134,132,127,132,130,129,127,132,130,133,128,128,128,135,134,129,132,133,129,132,134,133,129,134,133,128,134,137,129,130,133,129,132,137,135,132,134,132,129,133,135,136,132,137,135,130,138,131,131,132,134,136,135,133,133,129,135,136,133,135,135,133,132,137,136,134,137,136,131,136,135,135,138,137,132,134,140,134,132,140,135,132,141,134,134,139,137,135,138,138,138,135,140,135,135,141,138,136,137,140,133,131,140,136,137,138,136,131,133,135,135,124,124,117,109,106,105,100,99,96,94,99,98,98,100,103,96,106,109,115,129,139,147,150,155,148,145,146,150,148,144,147,146,142,146,141,144,148,147,147,146,147,148,144,153,148,141,154,148,142,145,149,146,149,150,152,149,148,151,144,151,150,147,148,149,150,150,152,146,145,152,146,144,150,147,147,148,149,150,149,152,152,146,146,146,150,145,147,146,143,148,150,145,150,152,144,145,148,145,144,149,147,147,151,147,142,149,150,150,143,149,145,144,151,144,145,146,146,146,142,147,147,145,145,147,146,143,1
131,129,129,131,137,127,128,135,131,129,130,134,124,125,131,125,124,132,126,129,135,132,122,131,136,127,123,136,130,126,135,133,129,131,139,128,129,134,125,128,137,130,128,129,135,127,127,133,131,134,135,130,125,139,133,133,131,131,131,129,133,132,130,133,131,131,135,132,128,134,130,129,134,133,133,130,133,132,132,130,132,128,124,136,131,127,137,131,128,133,130,129,129,130,137,129,126,133,124,120,128,120,123,123,116,119,118,116,118,116,116,115,121,122,117,117,116,125,118,130,133,129,136,140,137,139,146,139,137,147,140,139,150,143,137,142,143,138,139,144,139,137,149,144,130,138,133,134,133,135,136,129,130,134,128,136,135,133,135,132,134,134,141,129,130,138,137,130,133,136,133,134,132,141,130,133,136,136,128,138,132,131,133,140,128,136,139,134,132,137,131,129,135,137,132,133,132,127,132,138,133,133,136,137,128,133,133,129,128,138,128,131,139,135,128,129,138,131,135,136,130,132,129,123,132,132,132,128,131,128,128,130,126,130,126,132,125,131,126,130,127,124,130,126,128,132,125,124,132,126,132,131,131,129,136,132,134,135,132,125,133,132,130,137,135,131,128,135,137,132,138,128,133,137,133,132,138,135,132,137,138,135,130,135,136,132,134,139,134,135,139,136,131,137,134,135,135,139,134,134,142,133,133,138,138,134,137,138,134,133,138,134,137,141,136,135,142,136,136,141,138,139,135,139,138,136,142,139,136,141,142,140,138,142,141,135,142,139,137,141,138,138,138,139,142,137,145,137,135,138,130,126,126,125,117,112,117,106,102,104,101,100,95,104,102,103,104,104,113,124,136,143,149,153,151,146,148,142,144,146,145,144,145,144,142,142,146,143,143,146,145,145,148,147,142,145,145,144,146,149,143,146,152,144,146,150,149,142,147,149,147,145,147,148,142,145,146,144,146,149,143,145,149,147,144,144,145,142,144,149,144,144,151,142,141,147,144,142,143,147,147,140,147,144,142,146,147,144,145,145,145,142,148,146,142,147,144,144,146,143,139,140,143,143,140,148,142,137,148,143,143,143,146,146,139,146,144,142,143,144,141,140,143,141,140,145,141,140,141,141,134,139,131,132,132,135,129,126,134,134,130,143,1
130,133,124,132,134,128,135,131,135,126,133,128,135,129,135,124,133,139,124,134,134,132,135,128,136,125,132,131,131,129,133,130,133,128,132,133,130,139,131,130,132,132,126,135,131,135,127,139,131,132,139,128,131,135,130,131,138,130,133,136,134,134,131,136,136,132,133,136,132,130,135,129,129,132,134,132,132,136,125,131,133,124,132,129,134,127,131,133,122,136,133,129,129,136,126,136,130,131,127,131,134,124,130,137,126,132,126,136,130,126,131,125,125,127,129,128,129,129,124,136,130,128,132,134,132,134,130,130,132,125,130,129,128,132,131,131,129,129,130,129,134,124,134,131,131,131,130,129,130,129,134,129,134,129,124,135,131,128,131,137,126,130,129,129,132,129,128,129,127,126,128,131,126,132,130,135,131,129,130,138,130,130,134,129,123,134,128,131,134,130,131,131,128,131,124,131,130,122,131,126,127,129,131,124,128,126,124,130,127,128,127,130,130,132,132,133,129,133,129,128,133,127,137,130,136,128,129,129,130,132,129,135,132,133,133,133,128,133,135,127,132,142,125,127,131,132,128,132,134,134,133,135,128,128,134,131,128,131,136,127,132,135,128,132,136,134,129,134,135,129,133,136,128,131,137,131,130,137,134,127,137,137,129,134,139,130,131,140,133,130,137,137,128,135,138,132,135,141,134,131,140,137,130,136,139,131,136,139,135,133,138,138,130,139,140,130,136,141,133,134,142,136,132,139,139,129,137,139,130,134,140,136,133,138,139,131,139,143,131,136,140,136,132,140,138,133,141,143,132,135,142,134,138,140,137,131,139,141,136,151,166,170,178,181,176,161,165,156,145,146,151,138,141,144,140,136,143,140,134,141,141,133,136,141,136,133,140,136,132,139,140,128,138,138,134,132,138,137,129,135,138,130,136,139,131,132,136,134,130,137,136,128,132,138,130,133,138,136,128,136,134,126,133,135,125,133,137,130,130,137,132,128,132,134,124,132,134,128,129,135,132,128,134,136,124,131,136,127,131,134,131,126,136,134,126,134,134,125,130,136,129,127,135,135,128,133,136,128,135,134,130,130,138,133,127,137,137,129,135,136,129,128,136,132,127,133,136,126,133,136,128,130,137,128,128,135,135,126,134,134,128,137,4
129,126,137,131,133,133,129,134,133,134,126,133,134,130,138,131,133,132,131,130,125,132,134,128,132,132,129,130,130,136,130,132,133,129,132,134,126,128,135,128,136,130,134,132,129,134,130,132,130,136,132,133,137,130,133,135,125,133,132,135,129,132,136,131,134,130,128,136,138,135,129,136,130,134,132,132,130,137,128,126,132,135,131,132,134,132,129,136,134,133,133,130,136,124,137,130,133,134,132,129,132,133,135,130,135,129,134,126,135,126,130,130,128,124,132,130,132,135,130,125,133,134,132,127,133,132,134,137,133,127,131,134,131,132,129,133,129,135,131,128,130,133,132,132,136,127,135,129,132,129,134,128,129,127,130,129,130,131,129,121,134,126,133,131,134,125,131,129,128,129,127,131,130,132,131,123,135,128,127,131,125,131,133,132,131,128,134,129,125,131,123,134,127,131,128,127,129,136,128,129,131,130,128,125,136,128,132,133,125,131,129,125,130,133,128,132,126,132,129,134,132,129,132,133,130,132,131,132,132,132,137,131,132,129,135,125,131,133,122,136,134,130,137,134,127,131,134,132,127,133,131,125,133,132,125,132,134,125,131,133,128,127,131,131,124,131,135,124,129,133,126,127,132,129,126,130,132,123,130,135,126,128,135,128,126,132,131,124,132,134,128,129,135,129,126,134,132,125,131,135,124,130,135,128,129,133,131,127,132,133,125,134,136,127,129,135,130,129,136,136,128,133,137,128,132,137,131,128,136,135,128,133,136,129,132,138,131,131,139,135,128,134,137,129,135,137,132,132,138,137,128,137,137,129,135,138,134,134,142,136,139,152,163,167,178,180,167,166,165,156,148,152,146,139,146,145,138,140,143,138,138,142,139,136,140,141,130,139,141,136,136,141,136,131,140,138,132,137,141,134,136,138,136,130,140,137,131,138,140,129,137,138,135,130,139,135,130,137,139,130,134,141,132,133,138,135,130,137,139,130,135,139,132,133,139,134,131,139,139,132,135,140,128,134,139,135,131,137,138,129,136,137,131,135,137,134,130,138,135,131,138,139,131,134,138,134,131,138,134,129,139,137,128,133,136,132,132,137,135,128,136,137,128,134,138,130,131,136,134,128,134,135,128,135,137,128,132,134,131,126,133,140,4
133,133,126,127,131,126,130,131,127,127,126,136,124,127,131,125,134,130,130,122,130,127,126,124,130,129,131,126,130,127,129,133,125,133,127,130,123,132,129,127,125,130,119,130,127,132,131,126,129,129,130,128,129,127,133,123,135,130,124,129,123,133,125,127,130,124,133,130,123,134,129,130,123,131,123,132,127,134,122,128,129,126,128,131,127,124,127,129,124,129,127,125,130,127,125,123,130,129,131,132,129,129,127,128,129,126,130,128,131,130,128,131,126,133,132,127,133,133,128,130,134,127,134,129,132,130,140,127,131,134,132,134,130,134,133,136,136,137,130,133,135,131,133,140,133,135,133,133,135,138,132,129,134,128,135,133,135,129,135,130,130,134,133,133,137,129,133,130,138,131,131,127,139,133,134,134,138,129,128,136,137,130,135,133,130,137,131,131,128,137,131,134,130,134,123,135,131,126,131,130,126,136,126,135,125,132,127,135,128,133,130,129,133,133,132,128,130,124,135,125,132,121,133,131,127,125,131,123,132,125,128,130,136,133,132,133,130,126,129,130,127,130,127,131,124,127,136,128,131,135,127,142,136,137,142,141,134,144,143,134,139,141,134,135,140,139,133,141,142,132,139,141,132,135,139,137,132,141,142,130,139,140,129,136,139,136,134,142,140,133,135,142,134,137,140,136,132,139,139,130,137,140,133,138,140,135,133,140,138,132,139,142,132,137,142,134,136,140,139,134,139,140,128,140,139,134,134,142,136,133,137,139,133,138,140,132,136,141,136,133,141,138,133,137,140,130,135,138,135,132,138,138,132,139,147,149,166,175,170,160,162,157,145,148,147,137,142,142,136,137,142,138,133,137,141,131,137,139,131,132,138,137,129,138,137,129,133,136,130,133,136,133,130,138,135,124,134,136,128,132,135,130,128,135,132,125,133,134,126,132,134,131,128,135,132,125,134,134,126,130,135,129,128,134,132,125,133,134,125,134,134,129,129,135,131,126,134,136,124,133,133,127,129,134,130,129,133,134,128,133,135,127,129,134,129,128,134,133,124,134,132,127,129,136,126,128,133,131,127,131,136,125,134,136,131,130,136,131,127,134,135,127,133,136,128,132,136,132,128,135,133,126,131,135,122,131,135,128,126,132,133,135,4
128,133,128,133,131,130,128,132,132,128,132,134,128,126,132,132,134,131,131,124,133,131,129,132,135,129,135,132,131,126,131,136,127,133,133,133,133,136,129,133,129,133,124,132,136,130,131,129,134,133,137,131,131,131,128,132,132,132,133,126,128,134,128,135,131,130,133,138,130,130,134,136,128,138,129,125,126,133,126,127,134,126,130,132,127,134,130,134,125,128,130,133,125,128,125,121,127,120,130,127,129,129,126,127,131,121,134,127,133,126,130,127,130,132,124,131,133,129,135,131,133,125,131,129,134,128,132,139,123,137,127,130,136,134,132,129,135,125,128,136,132,130,133,130,128,132,129,133,126,132,131,131,127,128,132,131,132,132,130,127,133,126,127,133,119,129,133,131,129,133,126,128,132,132,127,136,125,132,131,130,129,124,133,126,126,132,126,125,128,129,127,123,130,129,123,132,119,124,122,132,124,127,129,124,127,131,123,129,133,132,129,131,125,128,127,130,129,122,126,137,127,133,126,137,129,133,131,132,136,132,131,129,132,135,125,130,135,127,134,131,128,131,131,134,126,119,124,120,129,128,128,132,130,123,130,132,124,131,132,125,127,132,131,124,132,132,123,130,135,125,128,133,130,129,133,134,126,134,136,128,129,133,129,129,134,133,128,133,136,127,131,136,130,129,136,133,128,134,138,127,133,137,130,132,138,135,128,135,138,127,134,138,129,133,138,135,131,139,137,130,139,139,130,135,137,133,131,139,138,130,138,139,131,134,139,134,131,140,136,132,138,140,130,140,145,148,162,175,177,168,170,165,152,152,155,144,144,148,143,137,144,141,135,140,141,135,138,141,135,131,141,138,132,137,142,129,135,143,134,136,139,138,130,138,140,130,137,139,131,133,136,136,127,136,135,130,134,136,131,130,138,133,131,135,135,127,134,138,128,134,139,131,129,136,135,129,134,137,128,133,138,131,131,137,134,127,134,136,127,133,140,131,135,135,134,128,134,138,127,133,135,129,129,135,131,130,134,137,126,136,136,128,133,134,131,126,135,135,124,132,136,127,132,136,128,128,132,131,125,132,134,127,129,133,124,126,131,128,122,130,131,121,130,132,124,127,133,127,123,130,132,122,131,133,126,127,133,126,123,133,133,138,4
127,124,128,125,127,128,128,124,127,122,132,124,127,127,123,128,127,132,123,134,127,129,130,131,125,129,127,128,135,136,135,129,128,126,132,132,135,131,127,135,126,130,131,129,134,128,130,133,128,132,129,133,129,134,127,132,132,131,133,134,131,132,128,137,130,131,132,135,134,133,129,133,131,137,133,137,135,131,137,131,135,125,134,133,130,140,130,137,133,134,130,136,133,137,135,134,134,130,128,138,130,132,131,126,135,130,131,134,131,132,139,131,127,136,131,135,131,131,137,136,139,132,136,135,127,140,136,125,138,133,130,134,131,133,129,136,133,137,130,141,131,139,132,128,135,133,132,129,137,133,129,135,127,132,134,135,133,126,133,134,128,131,130,130,132,132,133,129,133,134,124,130,135,126,128,133,127,128,132,133,129,126,129,123,127,134,126,127,132,123,129,130,128,131,125,128,129,121,131,124,127,135,127,132,134,133,128,129,128,136,130,138,134,126,132,136,126,131,127,137,129,134,129,133,124,127,126,132,130,129,131,128,127,130,125,130,128,133,131,130,125,131,120,129,120,128,124,129,129,131,129,129,120,128,129,121,127,131,124,124,131,128,124,130,132,122,129,133,125,127,131,131,123,133,132,122,130,131,123,128,134,130,127,134,132,124,133,133,125,130,135,132,129,135,133,128,134,137,126,134,134,130,131,136,133,128,136,136,128,136,137,128,131,136,132,131,137,137,128,136,138,130,135,139,134,132,139,138,130,138,142,129,139,140,134,134,139,133,132,140,138,132,136,141,132,136,142,135,135,142,146,147,166,178,170,170,172,161,153,157,152,142,145,148,137,142,145,139,138,143,141,137,143,143,134,141,142,135,139,141,137,134,139,142,131,141,140,133,135,140,135,132,142,138,133,137,143,131,135,140,135,132,139,139,132,138,142,129,138,137,131,131,138,137,130,141,138,131,136,140,135,134,138,134,127,137,136,130,136,140,130,136,137,133,131,138,135,129,136,137,129,132,139,132,130,138,135,129,136,137,128,133,137,131,129,133,133,127,131,134,124,133,133,128,128,134,128,126,134,132,125,132,134,127,129,135,130,127,133,132,125,135,134,127,129,135,130,126,135,133,127,134,135,127,130,135,126,128,134,132,126,133,4
127,126,129,128,126,130,132,125,128,125,122,127,128,126,126,129,124,129,124,131,121,129,129,119,127,133,119,127,133,122,132,126,130,123,130,127,128,122,132,123,130,123,131,123,128,133,121,129,130,131,125,125,129,123,130,125,123,133,125,124,125,124,123,129,129,128,129,125,127,133,123,127,119,126,125,125,125,127,128,127,129,123,131,124,128,125,130,128,125,125,126,126,123,124,123,127,122,121,130,122,131,130,120,128,129,130,127,135,129,126,127,135,128,129,129,132,124,135,129,126,129,128,126,133,135,132,129,127,135,121,135,129,125,133,125,131,122,134,130,128,137,131,129,137,132,130,136,130,132,126,133,130,133,127,131,130,128,129,130,127,134,129,132,128,134,123,134,125,134,129,136,135,134,133,133,133,129,132,131,127,131,132,131,135,127,127,137,127,135,129,127,133,128,131,124,131,126,130,137,128,130,127,128,130,133,128,130,127,131,136,133,136,134,138,136,131,136,133,138,133,129,134,126,133,135,128,132,133,133,131,134,132,128,133,137,130,134,127,130,125,132,132,132,130,131,131,125,131,121,129,124,130,138,134,129,135,140,128,135,137,133,131,139,136,129,137,137,130,134,140,131,133,137,135,128,134,138,129,133,138,133,132,138,134,130,137,138,129,136,138,133,134,139,134,131,140,135,129,137,140,133,136,141,135,132,138,138,130,137,141,130,135,139,133,132,141,137,132,138,140,129,136,139,133,132,139,138,130,140,141,131,138,142,130,136,139,134,132,139,137,130,141,149,153,167,180,180,175,178,170,161,160,158,148,148,149,140,140,148,142,134,145,143,132,138,143,131,136,141,139,132,138,141,131,138,141,131,134,140,135,133,139,138,130,135,137,128,133,137,132,129,138,135,129,136,138,128,132,136,130,128,134,134,126,134,136,128,132,137,130,130,135,133,128,134,135,127,131,137,129,131,136,132,128,134,135,126,133,135,125,131,133,131,126,135,135,124,131,136,126,129,136,128,128,135,133,125,134,136,126,132,135,129,129,133,133,125,134,135,125,130,133,124,124,132,129,123,131,132,122,131,136,126,126,132,127,126,134,132,125,132,135,127,130,133,129,126,134,134,124,134,135,123,128,133,127,127,134,131,128,132,132,4
133,123,131,128,128,125,126,137,127,132,134,122,134,132,126,127,130,129,125,132,134,127,132,133,131,123,138,130,129,130,135,123,126,133,127,121,134,127,125,128,133,122,129,130,129,137,131,135,125,135,130,127,134,130,128,134,130,133,128,132,130,125,129,129,132,133,130,136,128,129,126,137,131,129,122,128,132,128,129,131,129,132,130,135,127,130,134,127,132,126,136,125,135,130,134,130,141,125,136,137,135,133,130,141,132,136,139,133,128,136,136,127,142,136,126,135,132,131,134,132,134,133,130,135,133,133,140,131,134,132,127,137,134,131,133,131,138,127,133,138,127,135,131,129,136,133,130,131,131,131,125,129,132,134,134,131,127,125,134,126,125,134,127,131,133,130,127,123,131,128,131,127,128,135,126,127,125,127,131,130,127,128,129,123,134,126,132,130,131,137,127,135,129,130,125,129,135,130,133,136,132,130,128,125,129,131,128,137,126,128,125,130,127,127,132,133,131,134,129,120,128,128,124,127,127,124,122,124,126,127,125,128,129,124,125,124,122,130,122,125,123,119,109,106,106,104,103,105,105,104,130,141,136,142,142,132,139,144,136,137,143,139,137,140,142,133,140,143,134,140,145,139,135,142,142,135,142,141,135,139,145,136,136,144,142,134,142,143,137,141,142,139,138,142,141,135,142,144,134,141,144,139,138,143,141,135,142,143,135,142,140,137,138,141,139,134,139,142,132,139,141,134,137,143,139,134,143,141,134,141,141,133,136,145,138,138,147,154,160,178,182,175,173,171,161,155,160,153,141,151,149,141,144,149,140,136,148,143,137,144,142,134,141,142,135,139,142,138,132,141,139,132,139,139,133,134,139,135,128,140,139,131,137,137,131,134,139,133,131,140,135,130,135,138,130,133,136,132,131,137,135,128,135,136,127,133,137,131,130,135,134,127,135,138,126,132,135,129,131,135,132,128,135,136,126,136,136,128,132,136,132,128,137,134,127,131,135,124,129,135,131,128,134,136,126,132,133,125,129,133,127,126,133,133,124,132,134,126,131,138,129,128,134,130,124,132,133,124,131,134,130,128,134,131,126,133,134,125,130,137,127,128,137,133,127,135,135,126,133,137,127,132,133,123,119,123,124,114,123,125,116,133,4
127,130,129,130,125,128,128,130,128,129,127,125,129,126,137,126,129,130,126,136,128,131,130,127,135,124,133,134,125,133,124,134,127,132,129,130,127,134,127,130,132,132,132,130,134,126,134,132,127,139,134,130,127,135,127,129,136,130,131,127,137,128,135,129,139,130,130,139,132,130,134,129,132,133,130,129,134,135,131,130,130,129,130,134,134,132,137,134,125,136,134,130,134,133,138,131,132,140,127,139,134,133,138,133,133,133,136,137,135,131,133,133,140,132,138,136,131,138,134,136,136,130,138,136,133,133,136,133,132,139,132,129,135,131,127,129,137,135,132,134,131,129,129,135,124,125,136,131,132,126,134,129,122,132,130,132,124,136,124,129,132,126,131,129,124,129,126,129,126,130,132,125,127,125,126,132,126,130,130,118,126,135,133,133,130,131,133,127,135,132,134,128,132,130,137,127,137,132,133,136,130,129,136,132,130,129,131,129,127,130,135,125,132,131,131,132,132,132,126,134,125,130,130,128,124,133,136,125,132,129,132,129,129,124,126,125,129,126,126,133,119,125,120,124,126,123,125,121,124,120,127,133,126,126,134,130,126,132,132,125,131,135,127,128,136,127,126,132,134,126,133,135,127,129,136,131,129,134,134,127,134,137,127,132,135,130,127,135,133,127,133,136,126,130,135,130,129,134,134,127,133,137,128,133,135,131,130,136,133,128,134,134,127,134,138,128,131,136,132,127,133,136,126,133,137,129,131,137,138,146,169,175,175,182,182,166,166,163,153,146,151,146,137,142,142,135,139,141,134,131,140,135,130,137,136,127,132,135,128,128,135,134,127,132,133,126,131,135,127,126,133,129,124,132,132,125,129,133,126,127,132,131,123,133,129,124,131,134,124,130,133,127,125,132,133,124,131,133,123,128,132,127,125,133,130,123,130,132,124,129,132,127,124,130,130,123,132,132,122,130,133,126,126,131,129,124,131,133,122,131,135,123,126,133,129,125,132,134,124,131,136,125,130,134,130,125,135,132,125,132,134,129,129,133,130,128,133,133,126,134,137,128,133,135,129,127,132,131,124,132,135,127,132,136,129,129,135,133,127,134,135,127,130,138,130,130,138,134,130,136,137,130,134,138,130,131,138,133,130,138,137,135,4
129,131,120,124,130,127,124,132,124,125,127,127,121,130,126,129,127,124,131,121,129,127,124,129,126,124,123,129,123,128,128,127,123,134,129,121,129,128,123,130,125,130,128,132,127,128,126,133,123,129,123,132,127,125,131,126,132,127,130,126,130,131,127,129,130,125,124,126,132,123,130,127,125,126,129,116,127,130,123,133,127,125,126,130,128,126,128,127,130,122,129,125,123,130,126,125,125,123,130,126,130,126,128,125,119,121,127,130,123,126,134,125,123,129,128,120,130,135,128,128,126,124,126,127,131,127,129,130,126,131,130,125,134,128,131,130,129,136,126,134,126,125,126,134,128,122,135,127,130,132,131,128,129,130,129,130,131,128,125,136,129,131,127,138,124,131,131,132,130,132,135,123,134,129,124,132,131,127,125,132,126,129,123,136,125,130,127,135,129,130,127,126,135,134,129,135,128,136,133,135,130,126,132,135,128,132,135,128,131,138,132,128,135,129,130,129,132,127,134,133,127,131,125,135,123,140,129,130,124,130,133,127,134,136,132,137,128,131,133,132,136,128,132,131,131,131,130,124,133,125,127,132,132,125,135,134,125,133,136,126,130,135,131,128,135,136,127,135,136,129,135,136,132,127,136,138,128,136,137,130,132,139,129,129,136,134,128,136,137,126,135,139,131,132,137,135,128,137,136,129,135,141,131,134,141,136,132,137,137,129,138,139,132,135,140,133,133,138,141,129,139,141,130,136,140,134,133,138,137,130,136,138,130,136,139,135,134,139,137,129,139,139,131,137,139,135,132,139,137,130,139,139,133,140,141,135,134,141,137,134,140,140,132,141,140,131,138,143,141,145,162,174,175,182,182,168,166,165,156,149,152,150,140,149,149,137,144,148,138,140,143,142,136,142,142,135,141,139,136,135,142,137,132,137,140,131,139,140,131,133,137,134,131,136,138,129,135,136,131,132,139,131,129,136,135,127,133,136,125,133,135,130,129,136,133,128,134,136,127,132,136,129,129,134,134,127,134,136,127,130,135,128,128,133,130,127,133,133,125,133,134,127,128,131,130,126,133,135,125,133,135,127,129,136,128,128,132,130,125,135,137,126,130,136,128,126,131,131,122,131,133,120,129,131,125,126,133,128,124,129,133,133,4
125,123,127,128,128,124,123,119,122,120,126,128,128,128,125,129,121,122,121,124,122,130,123,118,129,118,124,125,123,128,124,123,123,123,127,121,121,120,128,120,125,126,122,125,125,118,123,129,125,123,132,122,125,124,126,121,126,122,129,122,125,126,125,124,126,120,124,126,117,119,122,124,122,122,128,123,122,129,118,123,131,125,127,127,126,123,130,128,126,130,123,127,128,119,128,117,127,131,123,128,128,127,124,128,127,127,129,119,123,128,130,126,129,125,120,123,126,126,132,124,127,122,130,123,125,122,120,126,125,127,129,124,119,124,124,124,125,125,128,126,126,126,123,126,119,125,122,126,123,125,124,123,129,124,131,124,130,123,127,125,127,128,133,130,132,123,132,126,131,131,126,128,130,129,130,125,125,129,120,129,127,122,131,126,129,127,128,123,130,125,124,123,132,123,133,123,130,126,133,129,131,121,130,127,122,134,125,131,125,132,130,130,125,130,128,133,130,129,132,127,131,125,131,134,128,130,128,127,128,128,126,134,129,132,123,130,130,129,129,128,130,125,129,128,120,132,126,130,126,131,132,131,131,120,130,131,122,128,132,123,126,131,129,124,131,132,123,130,134,123,127,132,127,125,132,132,123,129,130,124,126,132,126,123,131,130,122,131,134,121,128,131,126,123,130,129,120,129,132,120,128,130,124,125,134,129,123,130,132,121,131,128,122,124,130,128,129,142,157,161,173,173,163,160,159,147,140,142,139,131,135,137,128,132,136,130,128,132,131,123,131,133,122,127,132,125,125,130,128,123,128,130,121,127,129,123,123,130,128,119,130,132,122,127,132,122,126,129,125,120,131,128,120,128,130,122,125,130,125,123,129,126,120,130,131,121,126,131,125,123,131,127,120,129,128,120,125,133,125,125,131,127,122,131,132,122,130,132,125,125,133,130,124,134,134,123,130,133,125,126,132,129,125,132,133,125,131,136,124,130,133,129,124,131,133,122,133,132,126,130,134,127,128,134,130,124,133,134,127,131,136,127,130,132,130,126,131,134,125,132,135,127,129,135,130,127,133,135,126,134,135,128,129,136,128,126,132,131,122,130,131,123,125,133,126,125,133,129,122,132,132,121,127,129,121,123,129,127,120,132,129,129,4
139,141,134,142,147,132,145,134,138,131,143,133,140,134,142,140,133,140,133,138,138,136,135,144,137,140,137,142,132,141,137,141,139,142,142,133,142,137,140,130,139,138,135,138,141,128,139,131,136,134,138,134,133,143,141,133,134,132,133,138,138,133,136,145,135,140,135,138,135,135,133,128,139,131,139,127,138,132,132,140,140,129,141,130,136,126,135,130,126,131,130,131,135,131,127,127,136,133,135,135,136,131,133,131,131,129,133,126,137,137,131,132,127,135,130,130,137,129,129,130,131,129,130,128,135,127,139,134,126,136,132,121,132,130,133,129,139,127,128,135,128,131,132,130,132,130,132,130,125,136,131,133,132,132,128,127,128,126,129,133,128,132,130,135,128,127,135,127,125,133,124,127,130,129,125,122,136,120,126,126,127,125,125,128,123,128,130,126,125,129,122,128,126,126,123,127,128,121,124,128,124,125,127,125,123,126,129,122,118,124,123,130,128,121,127,123,125,124,127,125,127,125,129,121,125,122,132,125,127,123,128,125,125,132,133,141,135,129,132,139,134,135,140,131,138,134,139,134,130,131,146,140,135,135,143,138,134,141,140,135,140,139,133,135,139,137,129,135,137,132,136,139,135,134,137,133,131,134,137,125,134,135,129,129,137,129,127,134,134,127,130,133,125,131,136,130,127,135,132,128,132,133,125,131,133,124,126,133,130,126,132,133,125,130,131,124,126,129,128,122,130,129,123,127,132,120,126,128,124,122,127,124,120,130,137,145,162,170,168,157,158,151,140,142,142,134,137,136,130,129,134,131,126,130,130,120,124,128,124,122,130,126,121,128,127,120,126,126,121,123,127,124,121,127,126,119,125,126,120,123,126,124,118,125,125,118,124,124,118,120,125,121,116,124,125,117,123,124,119,120,125,119,120,125,123,117,125,124,119,122,128,120,119,125,125,119,123,124,118,120,125,119,120,128,121,117,126,124,119,123,126,120,122,126,122,118,124,125,119,124,128,120,120,127,121,121,126,126,119,124,127,120,123,128,123,122,127,126,123,127,129,121,126,129,126,124,130,125,123,129,129,121,126,130,127,124,132,125,123,129,130,120,129,130,124,122,128,123,120,129,124,120,127,127,121,125,128,125,124,130,129,141,4
127,133,126,127,128,132,127,133,129,133,123,129,128,123,133,129,126,128,136,125,133,127,130,126,130,131,124,128,130,130,133,128,132,130,136,128,133,125,134,126,125,134,129,127,131,133,131,134,130,130,128,129,130,124,134,128,132,141,131,135,135,139,134,133,145,137,142,144,138,130,137,136,132,133,131,129,127,131,137,131,135,132,134,137,135,136,129,136,136,133,140,141,134,139,136,131,137,137,134,132,137,134,138,129,136,132,137,137,139,130,140,140,133,144,136,142,136,130,137,127,137,138,132,134,145,138,131,139,135,132,139,138,132,132,139,137,135,134,139,131,137,133,133,138,142,135,138,141,139,139,136,141,140,132,144,130,136,143,132,140,141,132,132,139,139,132,133,143,135,136,139,139,135,132,132,132,135,132,132,129,130,126,127,130,126,129,131,127,130,129,130,126,119,126,130,122,128,121,134,120,127,129,122,120,127,114,123,129,117,124,127,114,118,123,123,117,124,119,117,117,121,118,115,118,123,119,118,119,118,119,118,121,117,120,118,112,120,125,121,132,125,129,127,128,127,129,124,127,127,131,134,127,133,129,123,133,132,124,131,133,127,129,134,129,124,132,134,125,132,135,127,130,135,130,127,133,132,126,133,134,127,131,136,130,130,135,134,125,134,135,129,130,136,129,129,135,133,127,135,136,127,133,135,130,132,135,134,127,134,135,127,132,133,126,128,130,127,122,127,130,128,143,158,165,177,187,182,175,179,169,156,157,157,145,145,148,137,136,143,141,133,140,135,128,137,139,130,132,136,133,129,134,137,127,133,136,128,129,137,131,128,133,131,123,131,133,127,125,137,129,128,132,135,124,131,135,125,130,137,131,128,133,132,123,134,132,127,131,136,128,127,133,133,125,131,131,116,126,129,121,125,128,127,118,127,131,119,128,130,120,123,129,125,123,130,130,120,129,130,121,130,132,128,125,132,130,123,130,132,123,130,135,128,125,133,131,124,134,133,126,132,135,130,129,131,132,126,134,136,125,131,135,127,131,136,131,129,133,135,129,132,139,129,131,139,138,133,141,140,130,141,142,135,139,143,136,135,141,139,133,139,145,135,140,143,141,136,144,138,133,138,138,131,136,141,132,136,142,136,136,141,133,4
136,133,142,135,137,135,137,134,130,137,133,137,134,130,136,135,130,138,132,143,132,142,139,136,132,139,130,135,133,140,135,138,137,138,135,133,137,140,136,139,139,138,141,133,139,138,129,136,142,130,137,140,136,138,133,143,132,137,139,137,140,135,135,130,139,140,128,140,134,139,131,141,133,141,139,139,133,139,142,132,143,134,135,136,141,138,137,136,137,136,138,139,134,139,134,139,129,139,134,133,137,142,128,138,136,138,133,142,141,140,134,140,135,139,135,137,140,132,141,137,140,139,134,137,137,137,139,141,137,139,134,140,137,138,136,140,141,138,147,138,139,137,140,133,140,138,143,139,130,135,139,129,131,138,139,140,134,136,128,133,133,136,138,135,134,133,139,134,136,136,138,136,132,141,133,137,140,136,139,138,136,144,137,137,147,134,141,134,137,137,138,133,138,137,138,141,138,140,133,142,132,140,140,137,138,132,141,135,134,136,140,128,135,138,131,130,141,137,146,137,146,137,146,140,143,133,148,141,140,138,140,140,135,145,136,140,136,139,130,123,122,112,117,114,113,115,115,113,113,111,119,134,142,140,133,141,142,133,140,143,136,137,141,137,135,141,139,134,139,143,133,136,142,136,133,143,140,132,141,143,133,137,144,136,135,140,139,132,139,138,134,140,141,136,134,142,135,134,140,141,129,137,141,131,138,143,137,133,141,139,133,142,147,151,171,184,183,180,180,172,159,160,158,144,146,149,141,144,150,144,137,145,141,137,143,143,136,138,141,140,134,143,141,132,140,144,135,137,142,135,135,142,138,129,139,140,131,138,141,133,131,139,136,128,140,137,133,137,139,133,130,139,132,131,137,138,129,138,141,129,130,140,136,127,138,138,129,134,137,132,133,138,133,130,135,134,124,135,134,126,132,136,129,129,134,132,127,132,137,127,130,135,127,128,134,131,127,134,135,125,132,135,128,132,133,128,126,134,131,126,131,136,126,129,137,129,126,135,128,127,132,132,122,130,135,129,128,133,130,123,135,131,127,129,135,129,132,136,131,128,137,133,125,133,137,129,133,138,130,130,133,134,124,134,134,124,131,137,126,129,135,134,125,133,137,126,133,136,132,131,133,129,124,130,135,124,132,136,127,128,133,126,4
122,130,122,131,129,129,121,128,125,117,120,127,120,129,125,123,127,125,118,124,126,126,124,126,129,122,125,124,123,127,124,128,124,125,124,126,123,129,126,124,129,122,130,120,127,125,122,125,128,119,125,125,122,126,126,122,130,125,126,123,127,126,129,127,123,122,121,124,121,118,124,121,121,130,124,122,125,125,123,128,126,125,118,124,122,123,124,125,121,124,121,127,120,129,116,121,118,124,125,122,128,115,124,125,126,122,129,118,127,118,122,127,118,122,126,116,122,129,120,124,125,127,125,131,125,124,130,133,128,130,123,132,126,123,127,121,134,126,132,128,131,124,134,134,125,131,131,128,124,130,128,126,127,130,125,135,126,136,124,132,130,128,126,130,130,126,129,133,129,129,129,126,130,132,133,134,134,129,133,127,129,131,128,135,126,129,127,128,133,127,137,128,134,129,130,124,132,130,129,126,131,125,131,130,126,137,130,129,130,126,128,128,135,131,127,128,132,130,128,132,125,131,125,131,121,132,128,132,133,127,134,129,130,135,129,129,140,131,136,134,132,136,131,131,127,132,135,128,134,130,124,132,134,128,127,136,134,127,133,132,123,132,135,125,131,134,130,126,135,134,125,132,136,124,131,135,128,128,135,131,124,132,135,125,132,136,127,129,133,131,126,134,136,124,133,133,127,129,133,128,127,133,135,124,133,134,128,128,136,128,127,133,129,122,133,134,124,130,136,128,127,133,131,126,130,135,123,131,134,127,127,137,130,127,131,133,123,130,133,127,130,134,128,127,131,133,123,133,133,124,130,134,128,125,132,129,123,131,134,122,131,137,133,147,164,170,166,167,162,147,152,150,140,141,143,135,134,139,137,127,135,137,127,133,138,131,130,138,135,125,133,135,127,133,136,129,131,135,130,127,133,133,124,131,135,126,129,136,130,127,132,132,124,132,132,125,129,133,127,125,133,130,125,131,133,124,127,134,127,126,133,130,124,132,130,123,129,131,125,125,135,131,125,132,133,124,130,133,123,131,135,126,127,133,131,124,130,132,124,129,133,127,126,132,133,128,135,135,125,133,135,127,130,136,131,130,136,137,126,135,138,129,130,135,128,124,132,132,120,131,130,125,128,134,130,127,133,133,126,132,133,138,4
122,127,125,126,130,128,124,126,127,122,132,128,124,132,127,130,127,130,130,127,133,128,131,133,127,130,130,127,129,131,126,129,132,129,126,130,133,125,134,130,131,133,132,127,134,126,131,130,123,135,124,127,135,126,136,127,131,128,134,130,129,133,131,130,129,132,128,133,132,130,131,129,130,126,136,133,131,137,134,131,135,132,137,129,135,132,132,129,134,134,128,131,133,133,132,132,139,129,130,137,135,130,138,132,136,136,132,137,135,135,134,134,128,130,136,134,129,136,137,135,134,129,141,125,137,133,137,134,138,133,130,140,129,131,133,141,129,138,133,141,132,140,133,132,136,137,135,135,136,135,135,132,140,127,141,134,135,134,140,127,137,133,142,136,139,134,132,138,134,130,139,128,134,135,134,138,133,140,136,131,139,138,131,132,141,134,133,138,135,131,130,133,136,134,131,134,132,137,131,134,127,134,124,132,126,135,128,126,128,130,133,130,132,126,132,125,133,129,126,127,130,123,130,121,124,123,129,132,133,137,134,128,133,129,136,132,134,131,135,129,134,132,128,133,124,130,134,132,138,129,133,122,125,131,126,122,132,130,122,129,133,122,125,133,125,124,131,129,120,131,132,121,129,132,126,124,133,129,123,130,133,120,132,132,126,128,133,128,126,133,134,124,133,135,126,129,134,127,125,133,134,125,134,135,127,131,135,129,127,134,133,127,133,135,126,131,135,128,129,134,133,126,135,135,125,132,135,129,130,134,133,127,137,134,128,133,136,129,130,136,131,129,136,133,126,135,138,127,134,138,130,129,139,133,127,135,135,128,133,138,133,133,146,149,155,176,183,172,174,174,158,157,160,150,143,152,148,138,145,146,135,142,145,137,135,142,139,130,138,141,130,134,140,133,131,141,134,130,138,138,130,135,140,130,131,137,130,128,138,136,126,135,139,128,130,137,132,126,137,134,126,135,138,127,132,137,129,128,137,131,128,133,138,125,132,134,125,130,133,132,125,135,136,126,133,136,127,129,134,132,125,136,134,126,135,137,127,131,135,129,126,135,133,126,134,134,126,130,137,130,127,134,132,124,134,133,123,128,132,123,126,131,128,120,131,130,120,130,133,123,126,133,128,126,131,131,121,131,132,122,129,122,4
141,135,136,145,134,139,138,137,139,135,138,139,131,140,132,136,139,131,142,135,140,134,133,130,139,136,138,141,132,133,133,140,133,137,137,135,131,134,136,138,136,137,135,136,135,137,135,132,133,141,130,137,130,139,136,133,136,137,135,134,132,140,135,131,138,128,136,141,127,137,132,137,135,132,133,137,137,138,136,134,138,137,132,143,138,136,133,133,139,137,139,139,134,133,140,133,135,134,132,143,131,130,131,134,130,137,134,135,132,139,135,137,135,132,143,137,136,139,128,142,131,135,130,137,133,132,139,130,137,136,137,133,135,134,132,132,131,136,129,138,132,133,130,135,129,130,135,128,132,133,131,134,133,134,135,133,137,133,130,131,129,131,132,134,128,132,134,131,130,137,131,134,129,137,124,134,131,127,129,126,129,132,130,131,131,128,126,134,128,130,125,129,131,134,126,132,133,128,124,130,127,128,130,126,128,133,128,137,127,135,133,133,137,128,135,133,130,130,131,137,129,136,135,128,137,130,135,130,131,137,134,133,135,131,129,128,132,134,128,135,126,128,130,125,126,127,134,128,129,129,139,134,131,127,132,133,127,133,133,129,127,135,134,127,135,131,126,131,135,128,127,136,130,128,136,133,126,134,136,126,131,135,131,125,135,132,126,135,137,127,132,136,129,128,134,133,126,135,134,127,130,136,131,131,135,132,128,134,136,126,134,137,127,130,138,132,128,137,134,127,135,137,128,134,138,131,131,138,136,129,138,139,129,135,136,128,134,139,138,131,138,139,131,135,139,131,130,137,134,133,145,157,164,187,191,186,183,178,165,158,155,152,142,145,146,136,137,144,134,136,138,136,131,138,138,130,138,139,133,132,140,134,131,137,137,128,135,136,130,133,136,133,129,136,133,128,133,136,126,131,135,129,129,135,133,126,134,133,127,130,134,127,127,133,130,126,135,133,124,132,134,127,130,135,131,128,133,134,126,134,135,126,130,137,129,128,135,132,125,132,133,124,131,133,128,128,135,132,127,133,135,124,133,134,129,129,135,133,129,139,136,130,136,138,131,132,139,132,130,136,136,129,138,138,130,134,138,132,130,139,134,129,135,137,127,134,138,130,131,138,134,129,136,133,125,131,134,126,130,134,131,135,4
139,133,134,132,137,135,130,132,138,132,136,136,134,137,131,138,134,134,144,133,138,131,142,127,136,136,144,131,138,134,136,136,135,135,136,137,139,138,139,134,130,137,139,132,140,134,137,137,136,140,128,143,140,129,144,133,143,131,141,131,134,140,138,130,139,140,132,139,143,135,138,140,132,138,137,136,131,138,131,139,140,135,139,135,131,136,139,138,135,136,143,141,129,137,135,138,131,140,136,137,137,143,138,139,136,136,141,135,141,135,144,137,136,138,138,132,137,138,138,132,133,139,129,125,136,130,133,128,135,123,133,134,131,137,133,131,137,132,135,128,135,133,131,139,128,135,127,140,128,137,138,139,129,135,130,128,133,128,136,131,128,131,130,131,130,131,131,135,129,127,137,127,131,128,139,131,131,131,124,133,132,130,135,132,139,127,132,131,127,128,138,127,137,126,131,130,129,133,126,137,134,127,125,130,127,128,134,134,130,129,134,132,126,131,128,128,130,134,128,125,131,127,127,130,127,128,132,127,131,130,127,132,124,129,131,127,131,132,132,138,133,125,130,133,126,134,130,132,128,134,135,128,138,138,130,132,139,133,134,139,135,130,139,137,130,138,141,130,137,138,134,131,140,136,128,138,140,130,138,139,134,132,140,137,132,139,139,130,137,141,131,135,141,135,134,138,139,131,139,142,134,136,140,134,133,140,140,131,140,142,129,136,142,135,138,142,138,133,141,141,133,139,142,131,137,141,138,134,141,141,132,138,141,133,136,141,136,133,141,139,134,140,138,131,136,141,133,133,139,136,133,141,140,130,139,141,136,137,141,135,132,140,140,132,140,141,135,138,141,135,134,143,144,145,164,181,184,198,203,195,187,185,175,163,162,162,147,150,153,142,143,148,144,137,145,143,134,142,139,131,137,141,136,132,140,138,132,138,143,130,136,140,132,132,139,137,129,137,138,129,134,136,131,131,138,131,126,135,134,125,132,134,128,131,137,129,128,133,132,124,133,134,126,131,138,128,128,134,130,127,132,133,124,132,134,128,129,133,132,125,134,134,125,131,133,126,127,132,130,127,135,133,124,132,133,124,131,132,126,127,134,132,125,131,133,127,131,135,125,127,132,128,124,132,131,124,130,135,125,128,134,131,4
124,126,125,122,127,120,129,122,126,128,125,125,125,126,131,127,128,120,132,122,129,128,128,126,126,132,126,134,124,132,123,131,126,126,125,131,126,132,127,131,120,131,132,130,124,132,129,126,130,127,128,132,125,129,127,132,131,121,136,127,127,129,127,120,135,130,131,134,132,130,125,128,129,124,133,134,124,124,128,132,121,134,128,125,133,127,128,122,133,129,122,132,137,122,128,128,124,126,134,130,133,129,133,124,130,133,126,135,130,124,129,129,132,123,133,131,125,137,136,134,129,131,123,134,130,133,129,125,132,123,131,131,128,133,132,139,132,129,134,127,137,136,137,131,138,133,132,133,140,128,137,140,129,138,135,131,131,135,133,139,138,140,137,137,136,133,130,132,131,134,135,139,132,134,140,136,134,138,135,129,139,129,132,134,136,132,141,131,136,132,139,127,134,130,132,135,130,134,133,130,127,140,124,133,129,133,129,130,126,132,129,128,124,137,129,131,132,130,133,129,136,129,131,126,128,124,127,133,130,129,131,126,128,128,130,132,132,126,132,130,130,126,132,131,129,129,136,135,131,136,134,128,135,138,133,131,139,135,130,137,136,130,135,139,130,133,140,134,132,138,137,128,137,138,131,135,138,133,131,140,134,133,137,138,128,134,138,132,133,138,135,131,138,139,131,138,139,130,136,139,135,132,139,138,131,140,140,131,136,141,134,136,142,137,135,143,141,135,138,142,135,136,142,138,134,142,139,134,139,141,134,136,143,138,137,141,141,134,141,140,135,139,141,137,137,141,139,132,141,141,133,139,142,131,138,142,138,134,140,140,134,140,141,131,138,140,135,134,139,138,131,140,139,134,137,142,146,155,171,177,172,183,179,163,166,167,154,150,156,149,140,149,148,139,145,147,140,139,147,136,133,140,139,132,140,143,133,136,141,133,132,140,139,130,137,140,129,135,138,131,132,137,136,129,135,137,125,135,137,129,132,137,132,129,134,134,126,133,135,128,132,135,133,128,135,135,125,134,135,126,131,136,129,127,135,132,127,134,133,125,130,133,127,127,133,132,128,134,132,124,130,134,125,131,136,130,125,133,132,127,133,137,126,133,134,129,128,134,133,124,135,134,127,132,135,128,129,134,129,124,133,131,4
130,135,128,136,134,134,127,130,129,133,126,133,128,134,132,133,130,130,126,131,126,135,130,130,127,125,125,123,129,125,125,130,124,134,126,128,124,128,125,127,131,124,131,120,129,123,123,125,127,121,128,125,122,127,126,120,127,128,129,127,125,122,128,121,127,131,121,130,127,127,127,124,127,129,127,124,129,132,124,129,127,122,127,128,127,128,129,129,122,121,129,112,125,126,126,123,128,125,122,124,124,124,120,128,119,123,120,129,123,119,129,115,125,127,119,123,126,124,126,123,128,119,123,124,121,127,122,128,123,120,122,122,124,123,124,128,128,120,126,125,129,127,123,138,129,130,134,130,127,138,133,132,136,129,126,130,132,127,131,128,137,128,129,133,127,133,126,128,130,132,129,129,129,128,135,132,135,135,125,132,133,129,130,129,134,131,136,131,129,128,132,127,132,128,128,126,131,127,128,128,129,131,123,124,124,124,122,113,117,123,113,123,119,112,113,123,116,115,114,121,117,120,122,114,117,123,120,127,120,130,117,127,130,128,124,126,130,121,133,127,121,128,126,126,128,122,130,122,130,126,132,137,131,128,134,136,127,134,135,127,131,137,130,131,134,136,128,137,137,128,135,139,132,133,138,137,130,138,139,131,139,140,131,136,138,137,131,139,138,128,137,138,132,134,142,133,128,139,136,128,137,136,129,133,138,133,130,139,136,130,137,138,130,135,138,133,135,149,154,161,171,170,158,161,158,143,145,149,139,140,142,140,134,139,141,133,138,143,133,134,140,139,129,138,141,130,137,140,133,134,139,135,129,138,138,130,133,141,130,134,140,130,129,137,134,128,135,137,129,131,139,133,130,136,134,128,134,137,127,131,138,129,128,135,133,126,133,136,126,133,135,126,127,132,128,125,132,132,124,130,133,126,127,133,130,125,133,133,124,131,136,125,131,133,131,126,134,135,125,133,136,125,132,135,130,127,134,132,124,134,133,123,132,135,126,129,134,132,128,135,136,125,132,137,127,130,137,132,131,137,136,127,135,138,128,133,135,131,131,136,134,130,136,138,128,132,135,131,129,136,134,129,136,139,131,137,139,133,134,140,135,134,139,139,131,139,140,131,138,141,135,134,140,139,131,139,141,130,141,141,136,134,4
134,140,139,142,132,140,137,142,139,140,135,138,142,138,143,138,144,135,138,138,142,138,143,136,145,138,145,141,137,144,138,138,140,136,143,141,135,141,140,136,140,134,141,136,143,137,144,137,137,148,132,139,144,137,139,138,134,140,141,137,141,136,141,132,142,136,140,141,137,139,135,140,141,131,138,138,140,133,139,140,131,135,136,140,134,139,133,146,132,138,139,137,145,136,138,144,129,136,137,143,131,135,141,133,140,144,131,139,134,136,137,139,136,133,139,140,135,142,146,131,138,140,141,143,136,145,138,134,146,137,143,138,145,141,137,141,131,138,139,141,139,144,139,144,138,137,139,138,133,137,135,138,139,135,140,139,137,136,139,138,133,136,138,135,135,135,134,136,131,130,133,140,132,140,129,133,128,133,129,134,132,133,136,131,131,132,133,133,133,133,129,133,130,133,131,128,129,129,135,126,134,127,126,129,129,129,125,135,133,132,139,133,133,132,135,128,136,133,138,132,133,137,131,129,136,130,134,131,128,129,137,127,127,132,133,129,131,129,127,129,131,129,132,125,131,126,129,129,121,131,128,127,138,137,132,133,141,132,133,137,140,129,138,140,128,135,137,133,129,139,138,131,137,140,127,139,138,134,131,139,139,129,140,139,129,137,138,133,134,136,135,132,136,140,128,138,138,132,134,141,135,131,139,138,128,138,141,129,135,134,132,133,137,137,129,138,138,133,132,138,135,134,140,136,130,140,140,132,137,140,132,133,138,137,132,137,139,133,136,139,132,135,141,136,131,140,137,130,139,140,132,134,142,134,131,140,133,130,139,139,131,138,150,155,166,177,174,160,166,158,146,150,150,139,137,142,140,131,142,141,131,138,139,132,132,139,136,128,139,139,131,133,141,128,137,139,136,132,138,136,131,136,139,131,135,140,128,133,135,135,129,134,138,129,133,138,129,132,136,133,128,137,135,124,134,136,130,132,139,135,131,138,137,128,134,137,129,132,137,132,132,137,137,128,136,137,129,134,139,132,132,136,135,128,134,136,128,133,139,131,132,137,135,130,137,134,130,135,138,129,131,136,132,129,137,135,127,136,137,130,134,140,135,132,137,137,129,139,138,131,136,139,132,134,139,137,131,138,140,132,136,131,4
117,120,118,122,122,118,122,122,119,122,123,118,117,119,123,116,130,121,119,121,118,121,122,123,126,124,130,123,121,127,125,127,119,127,119,127,123,132,123,131,127,128,125,128,126,122,128,122,120,129,126,121,125,123,129,122,126,125,120,128,123,124,128,130,124,130,127,129,121,128,131,127,128,132,129,132,133,132,127,127,129,137,147,159,158,175,171,181,175,190,186,190,186,196,186,184,193,183,191,189,185,188,179,172,157,150,144,137,135,137,138,130,134,133,127,131,132,128,128,131,130,128,128,124,126,127,122,115,110,118,112,113,118,108,114,119,113,111,113,113,106,110,112,106,111,108,108,105,113,106,110,108,108,108,107,107,109,111,106,113,105,112,114,114,111,109,110,107,107,106,108,109,110,106,110,104,110,103,113,107,106,109,110,106,105,100,112,113,116,111,111,101,111,109,108,106,105,111,108,114,110,113,111,109,104,115,115,117,109,115,105,112,118,112,115,118,108,114,119,113,109,114,114,119,110,114,116,110,123,115,113,115,121,121,117,117,122,117,124,125,115,123,120,117,127,123,123,119,120,123,117,129,124,129,127,127,122,128,129,127,127,133,123,122,132,127,125,129,132,122,128,133,124,130,137,125,129,136,131,125,135,132,123,134,133,129,131,134,133,126,133,132,124,134,130,125,132,133,132,127,136,130,127,133,131,126,131,132,131,126,132,137,127,138,135,131,136,136,131,137,131,136,129,134,139,132,138,136,132,134,138,138,130,139,138,133,135,138,131,130,137,130,130,138,132,133,135,136,126,134,136,134,130,134,136,128,135,139,126,133,137,132,134,135,136,132,135,136,131,137,136,133,138,139,135,135,138,137,134,138,139,132,140,139,136,135,139,137,135,136,139,132,140,142,139,135,143,140,138,139,140,137,137,140,137,134,142,139,136,140,141,139,141,141,136,137,141,138,133,142,144,135,141,147,137,138,145,139,135,141,140,139,142,146,137,141,144,139,136,141,139,139,140,141,137,138,145,137,139,144,142,136,142,143,134,141,143,137,138,143,142,140,143,142,139,139,142,140,138,141,137,136,143,142,136,136,144,137,139,142,141,135,144,136,128,133,136,132,133,135,129,132,135,133,131,133,135,132,133,136,134,132,2
129,133,131,135,136,141,131,133,134,133,133,140,127,132,139,133,132,138,135,135,137,137,132,133,139,135,133,137,137,137,133,138,133,133,145,136,138,139,128,134,136,136,136,135,137,142,135,133,132,137,134,145,150,158,172,171,176,184,193,193,197,194,204,198,191,188,190,183,183,177,165,149,146,133,135,131,132,136,135,127,130,139,131,129,132,127,131,131,128,118,126,120,125,120,118,123,117,119,125,114,117,121,113,113,124,114,118,124,116,116,120,114,108,121,116,120,123,116,115,116,113,113,112,111,113,119,112,113,117,109,107,115,115,116,118,115,114,111,113,112,113,116,114,111,118,107,113,116,106,116,121,117,115,120,113,120,118,110,118,114,111,122,112,112,122,113,113,110,115,108,116,112,118,117,108,111,110,119,113,111,118,106,120,116,119,112,110,120,114,111,116,110,116,116,114,120,118,120,114,114,115,117,117,117,118,110,119,119,110,127,117,125,118,119,116,112,119,118,111,127,127,119,119,117,121,112,114,126,111,116,115,118,115,114,113,105,114,115,113,116,112,112,117,113,116,120,117,114,110,118,0,139,135,134,138,139,138,134,138,140,135,139,141,134,141,142,139,133,141,135,133,137,141,134,140,141,135,134,141,138,136,141,140,135,138,143,128,137,141,140,136,142,140,135,141,143,134,135,141,139,138,140,142,132,139,139,139,140,142,139,136,143,137,129,138,139,134,136,136,134,132,139,140,127,139,137,132,134,139,133,133,139,138,130,141,136,132,140,138,134,135,141,139,132,134,139,133,138,139,136,134,143,138,135,139,138,133,138,142,133,137,140,138,133,140,135,133,139,142,135,137,143,138,134,138,142,133,140,139,137,139,143,137,135,142,140,137,136,141,130,137,139,134,138,141,140,134,138,139,135,140,144,137,135,143,138,135,141,139,135,143,144,134,137,143,138,135,139,144,133,139,141,135,138,142,138,133,139,137,132,138,141,137,138,140,141,133,145,136,134,139,139,139,137,141,135,137,140,137,134,137,140,134,138,142,136,139,140,142,131,140,140,137,136,138,138,140,142,137,135,138,145,132,136,145,136,137,139,137,135,137,139,129,134,137,130,132,134,130,129,136,134,130,132,138,128,134,136,133,132,136,0,2
124,127,124,129,128,127,128,122,124,126,126,129,124,125,129,130,121,125,130,125,128,124,129,127,123,126,129,126,126,125,131,126,128,123,127,128,126,126,130,127,126,124,129,125,128,129,130,128,128,124,127,130,126,132,135,125,127,127,130,126,124,131,120,125,125,129,121,129,131,126,127,128,125,129,127,125,127,128,129,125,128,129,123,127,131,127,124,126,125,124,126,125,123,131,133,130,131,127,126,124,129,129,125,126,129,126,129,135,128,131,135,129,124,134,143,147,164,169,169,178,177,190,178,183,183,184,181,182,176,168,156,138,128,127,127,123,129,129,124,127,128,124,124,119,120,126,122,126,125,125,122,125,121,121,117,121,115,114,114,120,121,113,113,121,116,115,119,116,115,120,118,111,115,113,112,117,119,115,109,113,115,113,116,117,118,116,118,117,111,115,121,115,115,110,112,116,121,111,106,111,118,112,115,121,117,112,123,113,104,121,119,112,121,117,114,114,121,114,112,126,121,112,114,123,118,116,130,122,116,112,119,115,115,126,130,127,129,128,131,128,134,127,129,128,126,132,134,130,126,127,131,140,143,136,136,146,133,140,143,142,137,141,144,139,141,146,134,144,143,141,137,139,145,133,146,141,140,141,146,141,135,146,141,137,141,149,139,137,147,137,139,143,146,134,147,141,139,139,148,138,141,143,143,134,146,142,136,138,146,138,140,143,140,139,141,146,135,145,144,140,142,143,142,136,142,146,133,140,146,132,144,143,140,138,142,141,136,141,148,136,145,144,141,139,145,137,134,141,145,135,143,143,141,141,141,139,139,143,141,136,136,143,136,136,144,138,136,140,140,137,141,139,132,132,139,132,131,137,137,131,132,136,126,128,137,127,129,134,132,123,132,135,131,133,134,128,132,136,137,127,137,133,129,133,135,129,133,137,137,128,134,136,130,132,139,132,130,136,128,130,136,137,126,135,135,127,135,136,132,133,130,136,128,134,141,129,135,137,134,129,138,137,125,136,135,130,138,139,131,134,137,136,128,138,139,131,134,135,132,134,137,133,125,136,136,128,137,138,131,132,139,135,129,138,137,131,136,138,131,136,139,135,135,138,137,129,135,140,128,139,137,134,131,141,142,127,138,139,134,136,142,135,2
120,122,122,120,123,118,116,125,118,113,121,118,116,122,121,118,114,116,126,125,120,121,123,123,122,118,119,124,120,121,122,117,123,123,122,120,118,123,126,118,123,125,116,115,124,122,119,127,120,120,124,123,117,123,126,122,120,119,124,117,121,122,119,116,119,120,122,122,119,119,118,120,120,120,123,117,122,124,118,114,126,128,125,138,147,153,163,172,172,176,181,174,173,175,178,174,173,170,163,156,136,146,132,137,133,132,138,139,137,131,135,131,126,133,135,129,131,132,129,119,119,113,118,123,121,120,124,122,115,118,121,113,113,121,115,114,116,125,114,114,114,119,116,117,117,119,116,112,109,112,117,116,119,115,109,104,117,109,112,119,114,112,121,116,114,117,122,122,116,116,117,115,111,114,120,115,111,114,119,118,110,112,116,117,113,116,120,116,113,123,115,110,121,117,116,128,122,118,119,120,119,117,118,118,121,121,118,116,124,120,120,119,121,118,118,116,125,121,121,123,123,114,115,117,124,121,125,125,124,126,124,126,125,125,124,121,124,123,121,121,123,123,129,125,126,128,126,122,121,125,136,126,129,126,127,132,126,123,131,132,122,133,131,121,126,131,129,122,132,130,124,134,130,124,127,136,127,127,131,129,126,131,134,125,132,132,133,127,136,131,128,131,133,123,134,132,131,128,136,131,129,137,131,132,133,137,130,131,139,131,132,136,135,127,137,137,127,134,137,135,130,142,135,127,136,137,130,133,137,132,129,140,137,131,136,131,126,129,135,124,128,130,122,128,130,130,124,131,133,124,130,132,125,125,132,131,127,132,136,126,135,138,135,130,137,133,125,140,136,129,136,133,131,131,135,133,129,140,137,133,136,138,128,133,141,136,129,139,141,131,135,139,133,136,139,138,136,136,137,133,140,139,132,138,141,138,134,143,142,130,145,139,133,137,138,134,139,141,142,137,138,143,137,139,140,135,135,144,135,135,140,146,133,139,142,135,136,143,139,135,144,143,132,145,143,136,145,143,141,134,141,140,137,142,145,135,138,146,133,140,145,140,138,140,144,134,141,140,132,139,145,142,137,147,141,133,140,140,134,136,134,135,130,141,137,133,142,135,133,135,142,132,133,141,138,129,139,138,133,137,138,131,2
121,118,115,122,122,115,118,117,128,118,118,119,119,121,119,112,125,116,117,123,123,123,113,120,120,122,122,119,118,117,116,123,121,120,119,116,125,115,114,119,122,124,116,119,123,119,115,128,118,119,116,128,119,121,122,124,124,121,122,126,122,122,119,120,120,118,122,126,124,121,120,120,116,126,126,119,124,124,119,117,125,120,119,117,129,118,124,135,139,152,160,161,163,173,171,171,166,175,169,172,171,170,162,149,135,128,124,129,117,119,125,122,123,129,122,121,120,124,119,119,114,124,120,125,122,122,123,115,114,116,114,119,119,117,110,117,113,110,111,110,115,106,114,119,115,108,113,114,110,114,111,105,111,113,106,108,109,108,105,110,112,105,110,113,106,113,116,115,109,110,108,108,114,106,115,117,114,112,115,112,107,108,114,119,108,111,113,116,114,115,114,116,113,115,112,113,116,113,114,118,112,119,117,119,108,110,118,117,119,117,109,113,116,116,111,115,118,113,116,121,113,117,124,120,116,116,116,118,118,120,118,114,121,115,115,126,127,116,120,119,120,121,125,124,121,123,123,116,124,123,110,127,129,119,128,130,124,125,129,126,121,134,125,121,127,131,119,129,130,123,123,130,128,126,127,125,124,126,126,125,121,131,126,119,130,130,120,128,126,121,125,126,129,124,130,130,124,123,130,122,128,133,126,123,131,128,120,131,129,121,128,134,127,126,129,133,127,130,131,123,129,135,125,125,131,130,126,131,131,126,126,134,126,125,131,128,120,130,129,126,129,132,125,132,134,136,131,136,132,127,133,134,125,127,126,118,117,116,116,117,121,125,118,120,128,120,118,126,126,120,128,127,117,126,128,122,128,131,128,122,132,129,122,131,132,121,131,132,128,128,131,132,126,136,135,129,131,132,131,127,133,133,123,135,133,131,135,131,130,127,138,130,132,138,132,129,134,136,131,132,137,131,133,140,136,133,136,137,134,134,139,135,133,139,136,129,141,139,134,139,138,133,136,140,138,134,142,141,132,139,144,135,138,145,136,133,145,138,136,140,141,139,140,147,142,139,140,139,137,140,142,137,140,143,137,138,142,143,136,141,142,137,140,143,139,139,143,142,137,140,141,138,143,140,138,142,143,142,140,144,144,132,2
125,120,121,128,128,126,125,127,122,128,129,120,124,127,124,124,127,126,127,127,122,118,123,124,122,121,126,122,122,122,124,119,121,121,117,114,129,119,121,119,110,121,114,124,115,115,122,121,117,123,121,117,117,119,123,121,119,113,119,119,121,120,120,122,120,120,115,113,113,122,119,113,120,116,114,124,116,116,118,118,120,115,113,115,109,115,124,110,116,123,117,118,115,115,115,121,119,113,113,121,114,116,118,114,124,129,133,140,148,161,164,165,173,173,174,176,177,170,176,175,170,173,167,170,155,146,133,122,124,120,114,116,118,118,120,117,118,112,120,118,115,115,116,109,112,109,110,112,108,108,106,110,110,107,111,110,107,105,107,110,105,107,104,104,111,109,102,107,107,107,106,109,107,104,107,106,106,108,109,106,106,105,108,102,109,106,100,103,108,105,101,106,106,108,107,110,104,105,105,101,102,107,108,103,107,107,107,108,111,106,108,113,114,109,110,109,108,113,118,116,113,118,110,109,108,109,105,111,115,109,113,117,116,113,114,116,116,115,117,115,118,122,117,118,116,122,115,123,118,116,114,136,131,136,131,130,133,133,130,131,132,130,128,133,132,129,133,134,132,130,132,130,132,129,136,126,131,135,129,129,134,131,126,134,132,127,131,135,130,126,131,130,125,135,131,126,134,129,129,135,131,129,132,132,132,126,132,130,128,130,130,126,128,134,129,128,136,130,129,130,130,130,126,132,129,125,134,132,125,133,133,128,133,130,131,129,135,130,127,132,135,129,134,132,130,128,133,137,123,136,131,127,132,134,127,133,137,130,135,139,139,142,146,144,135,141,143,139,135,137,139,133,141,139,126,133,129,119,118,124,121,115,125,125,116,126,125,118,124,125,123,118,127,120,120,126,126,120,125,127,125,123,128,129,120,128,131,123,124,131,125,127,134,127,123,129,128,120,132,130,125,127,132,127,123,130,131,126,130,131,126,127,131,126,126,132,133,125,132,135,125,130,134,128,128,133,131,123,128,132,122,132,130,123,128,134,129,125,132,133,130,132,133,130,127,131,134,128,134,131,126,135,131,128,131,134,133,132,136,133,130,134,136,129,129,135,133,126,133,129,125,128,130,125,129,132,129,128,131,133,125,140,2
134,129,138,131,129,131,138,131,135,138,137,133,137,137,141,134,135,133,136,134,131,132,134,131,128,133,136,138,139,135,131,132,134,130,130,133,128,132,137,135,133,139,131,136,135,133,134,130,135,133,129,130,131,132,134,139,133,133,135,133,130,135,134,135,134,135,132,133,136,137,135,137,138,130,134,135,134,131,137,136,135,136,140,124,132,133,135,138,135,135,136,147,154,164,171,178,178,183,191,190,194,194,194,194,191,187,190,191,192,187,184,178,155,147,140,136,129,131,129,129,126,133,131,128,126,129,121,125,127,119,126,123,117,112,123,117,122,117,121,116,119,123,118,117,118,114,114,120,114,116,116,118,113,114,118,112,117,116,117,114,119,107,111,113,117,111,113,114,112,108,115,108,107,110,113,114,116,112,112,113,111,111,108,113,104,111,114,116,113,111,112,111,110,116,114,109,107,116,114,119,115,111,113,117,116,114,116,116,111,115,119,115,113,120,117,116,123,120,118,121,117,119,118,125,119,120,120,123,119,122,127,124,126,126,124,120,126,123,116,128,122,122,124,124,121,125,123,121,121,123,131,139,143,138,144,141,145,141,135,140,144,140,145,144,139,140,146,140,136,142,144,137,143,143,137,144,145,140,139,145,143,139,142,142,134,143,144,140,140,141,140,134,147,144,137,139,141,138,141,142,135,138,141,144,137,139,140,137,140,142,135,140,143,140,135,141,141,134,141,142,136,136,140,139,134,140,139,137,140,140,135,141,143,138,133,139,141,137,142,141,135,142,142,135,140,144,143,141,145,146,141,143,145,138,144,148,144,141,145,142,139,144,144,136,130,133,129,126,131,126,123,132,131,126,130,134,129,133,135,131,127,127,131,132,133,137,130,131,138,133,133,136,135,133,137,141,130,133,137,133,134,135,137,131,135,137,130,137,135,133,135,136,133,131,138,138,129,133,139,131,136,136,134,135,135,134,133,138,136,132,140,138,136,131,141,139,134,138,140,135,135,137,135,136,141,136,133,135,138,134,140,139,134,134,142,134,132,137,137,132,136,137,130,137,142,133,137,138,134,131,138,135,133,133,141,133,136,139,131,137,137,137,129,136,134,127,130,139,130,127,137,130,128,133,132,128,135,137,127,132,140,140,2
145,144,143,144,146,141,138,148,142,141,143,147,144,143,145,141,142,143,146,146,148,147,141,141,147,145,142,145,144,144,148,147,145,146,144,145,138,146,143,141,145,147,145,145,146,143,141,146,142,143,147,143,141,143,146,141,149,145,148,141,145,142,143,143,148,141,147,151,155,161,176,186,192,199,197,200,205,210,207,208,207,214,207,209,211,203,204,215,205,209,202,189,173,167,153,149,148,156,147,147,146,153,145,143,145,139,145,144,142,137,139,128,123,129,129,125,126,128,122,130,127,125,123,129,122,124,127,124,120,125,120,123,117,124,117,113,115,114,117,118,117,115,115,113,115,115,115,110,106,113,111,105,108,114,104,109,117,108,111,112,108,106,109,110,111,110,112,117,111,112,113,110,115,115,107,111,115,112,110,114,114,108,113,115,113,114,116,106,110,106,115,113,119,118,115,117,117,108,114,113,110,111,114,112,116,123,112,118,116,117,119,114,123,114,109,115,111,115,119,121,115,118,115,118,115,119,114,117,118,122,121,120,122,120,123,121,121,122,123,124,124,123,124,124,123,124,125,122,127,122,0,140,138,134,139,141,138,136,139,137,136,137,138,132,140,139,131,138,143,138,135,142,138,135,141,141,134,138,145,135,138,141,137,136,135,143,135,140,143,139,140,141,139,138,140,140,137,140,141,139,140,142,140,136,140,140,135,137,140,133,138,140,138,137,140,141,136,141,142,137,141,146,148,150,162,159,158,162,162,156,161,161,154,159,158,157,154,158,154,151,152,154,146,136,139,125,126,126,128,123,128,129,126,127,129,124,126,128,124,122,131,127,126,133,133,125,129,130,131,129,133,131,126,133,133,123,130,130,131,129,134,131,127,135,133,125,131,135,130,130,135,130,128,133,134,129,132,135,129,132,137,133,129,135,137,127,135,139,131,133,135,133,132,137,134,132,138,138,134,134,135,133,132,135,133,130,138,138,131,134,139,133,133,137,134,128,137,136,132,139,137,135,135,139,136,130,136,138,131,140,140,133,136,141,134,137,139,135,132,135,137,133,131,137,137,134,142,136,132,136,137,129,134,139,134,134,141,137,132,141,138,133,136,139,133,134,138,132,130,135,136,128,134,136,129,133,136,130,129,137,134,0,2
133,135,129,129,127,129,128,134,136,127,131,135,130,129,134,127,133,138,135,134,141,136,129,133,136,138,132,134,133,131,131,132,127,133,136,133,133,131,131,129,133,133,134,135,139,129,135,133,131,136,137,132,133,132,137,129,134,134,132,133,140,132,137,135,136,129,133,133,136,134,134,132,128,135,135,128,134,135,126,132,137,127,131,134,138,128,136,132,130,135,136,135,131,133,129,128,134,136,133,135,135,130,134,135,136,133,135,134,134,138,136,135,134,132,130,132,136,134,133,134,136,132,135,134,141,151,165,176,179,188,194,194,207,205,203,207,206,199,199,203,201,198,199,197,200,188,172,164,150,144,132,126,128,125,122,126,130,126,125,124,125,124,127,121,112,118,116,112,109,113,114,113,108,115,102,111,111,110,112,112,109,109,112,114,115,116,114,108,106,110,111,107,111,107,107,107,109,101,103,108,105,108,104,103,102,103,108,101,110,107,101,105,100,107,107,108,107,107,105,106,106,105,108,102,106,105,108,102,108,99,105,108,108,108,109,112,107,108,109,112,106,113,109,111,114,113,107,117,116,119,148,145,141,134,141,141,135,138,142,137,139,142,141,132,144,141,134,140,145,135,139,143,140,138,138,142,136,134,144,133,139,141,141,137,145,140,138,139,142,133,138,140,138,137,140,139,135,142,140,135,137,143,136,141,140,141,135,142,141,132,143,142,136,141,141,135,137,143,139,134,144,141,135,141,143,135,136,141,137,134,140,141,134,139,139,136,138,143,142,136,143,138,133,139,142,134,136,140,135,135,143,138,134,141,141,133,138,142,134,136,140,139,137,139,141,135,141,143,137,137,143,139,136,145,137,136,141,140,130,139,142,137,139,139,141,134,141,139,137,140,140,135,132,142,139,133,139,138,133,134,136,129,130,136,129,126,135,135,127,136,136,132,130,136,133,130,135,134,130,135,136,133,135,136,132,131,136,133,129,137,139,131,137,138,134,135,135,133,132,137,137,131,136,138,131,133,139,134,133,137,135,128,134,140,132,138,140,135,134,140,138,132,139,139,135,136,141,132,139,140,135,133,138,136,133,138,139,133,136,142,131,135,144,142,141,149,151,145,149,149,140,144,147,141,139,148,143,142,142,141,136,96,2
130,133,134,132,124,128,129,131,135,132,125,130,137,126,132,134,129,130,139,127,131,135,134,130,135,132,128,132,133,131,135,132,132,128,133,131,128,132,136,132,126,134,127,130,136,128,130,138,132,131,132,130,131,129,131,137,130,129,132,134,130,132,129,129,132,135,132,133,127,128,129,136,136,126,133,127,136,137,129,126,137,130,129,129,131,136,132,131,132,130,128,135,136,132,134,130,137,147,156,167,174,179,174,183,184,187,184,183,184,187,175,169,153,143,143,128,142,139,134,136,136,130,132,139,134,129,130,135,125,125,119,124,124,129,128,120,129,121,115,124,124,120,126,125,123,122,119,123,120,119,124,119,115,121,120,117,123,116,119,119,118,119,123,124,118,117,115,113,111,118,115,113,121,119,116,120,119,117,118,116,115,114,118,120,114,117,117,109,117,116,122,116,115,113,114,117,116,111,114,117,112,120,118,116,115,118,120,117,123,117,116,113,120,120,118,122,120,117,117,116,120,117,118,119,116,122,121,113,116,117,117,123,119,115,121,119,121,116,118,118,121,120,123,122,116,120,122,118,119,123,125,131,137,136,131,138,134,131,135,136,129,134,135,132,135,137,136,130,134,138,130,141,138,131,136,138,130,133,137,138,129,138,139,135,137,137,136,131,137,141,135,143,142,132,138,140,138,134,142,133,137,133,142,132,140,137,132,138,141,135,137,141,137,138,134,138,132,136,142,131,134,140,134,137,139,141,132,139,139,135,136,142,136,136,136,134,132,141,141,133,143,141,138,135,142,140,131,141,140,131,137,134,127,128,131,131,128,131,133,129,130,136,122,128,136,130,129,132,135,123,135,138,132,135,137,130,136,134,133,130,137,137,129,133,139,133,135,137,136,134,139,137,134,141,136,134,138,141,136,136,134,136,133,139,142,132,139,143,137,143,139,142,139,142,144,138,141,145,138,144,143,140,137,146,136,132,144,139,136,142,140,142,135,145,139,135,147,144,138,143,147,141,140,144,137,139,143,142,140,139,146,140,142,141,141,143,144,142,137,145,141,141,144,141,138,139,148,141,138,147,144,141,141,147,139,143,146,137,132,143,144,136,141,141,140,142,142,136,131,139,135,132,133,134,129,133,139,128,132,133,133,107,2
136,127,137,138,133,134,138,135,132,138,136,130,143,138,127,134,133,129,131,135,135,130,137,132,127,135,133,136,140,133,141,135,133,139,131,135,138,133,137,144,131,134,133,136,136,137,138,130,133,136,128,132,138,129,131,138,133,130,136,134,137,136,134,137,131,136,138,130,136,130,134,134,132,132,136,133,129,129,133,135,126,132,131,126,130,131,134,129,132,132,126,125,129,123,133,126,133,127,127,130,127,130,127,133,127,131,128,131,134,134,127,133,140,144,149,157,166,170,181,182,182,190,184,178,183,185,179,176,172,165,148,140,137,131,135,134,131,132,133,134,128,134,132,124,126,124,125,122,125,118,119,124,119,123,126,123,119,116,124,119,120,120,126,118,118,119,114,125,119,114,118,120,118,122,119,120,115,120,122,116,123,119,115,112,120,121,112,115,122,116,123,116,110,118,114,121,114,119,121,115,120,115,110,117,110,123,113,122,116,117,121,118,113,119,111,120,118,116,122,118,120,118,119,118,116,121,116,119,123,114,121,123,119,119,121,114,117,124,121,118,122,123,120,117,132,120,121,125,116,118,0,139,145,149,145,141,147,146,137,146,142,141,141,144,140,143,144,142,139,146,140,140,139,145,142,144,143,149,137,146,144,140,147,150,144,146,148,147,141,149,149,144,143,148,140,145,145,145,142,149,146,143,145,147,141,149,147,144,142,147,145,141,146,147,140,145,144,143,139,149,142,141,145,144,138,145,144,140,143,139,141,140,146,143,137,142,143,137,142,138,139,140,145,139,135,142,142,137,137,144,135,134,137,139,133,139,141,133,139,138,136,136,144,135,131,139,136,128,136,134,129,131,135,136,128,135,131,129,131,133,128,132,130,127,124,132,131,125,130,133,126,129,134,127,127,129,131,120,129,132,123,128,129,130,126,135,127,123,133,133,129,130,132,129,127,133,132,124,131,131,124,131,133,129,129,134,127,131,131,129,127,134,134,126,129,133,128,132,134,131,127,133,132,125,131,135,126,128,132,125,128,131,132,125,131,134,130,131,135,130,129,131,134,124,131,136,125,135,135,129,129,132,135,128,132,137,126,133,135,132,128,137,130,126,134,133,131,129,136,129,129,133,134,128,138,136,129,139,135,130,133,0,2
135,134,126,133,132,132,135,131,133,137,134,131,137,133,132,129,132,130,130,129,130,129,133,130,126,133,137,135,125,133,136,133,135,136,132,131,135,126,130,132,130,129,129,135,128,136,137,133,132,136,131,132,133,131,125,131,131,124,129,135,131,131,132,128,124,128,128,130,136,130,129,127,130,132,136,134,134,138,136,133,129,129,130,129,133,136,130,125,133,131,125,132,138,127,132,132,129,127,136,128,130,133,132,129,134,130,131,128,130,134,130,135,134,131,132,133,127,131,132,131,132,136,133,129,133,133,126,136,145,140,151,155,160,172,184,190,192,201,202,198,201,197,196,199,191,196,194,195,199,191,192,185,172,161,150,139,132,130,124,122,123,128,118,121,125,126,118,118,120,119,122,118,112,114,119,117,113,115,107,108,107,109,98,106,107,104,106,103,102,103,104,107,101,106,104,101,107,105,103,109,109,107,104,110,106,104,108,105,99,105,104,105,103,109,104,103,108,109,101,101,110,104,99,107,102,104,109,104,103,103,108,102,105,104,106,110,110,105,105,108,107,106,110,108,107,104,110,105,105,112,137,135,133,134,135,132,133,135,130,134,138,133,134,133,134,131,134,135,132,135,138,133,132,133,132,131,136,136,131,133,132,134,136,135,132,136,134,133,131,138,134,133,133,133,132,134,135,136,134,135,136,131,137,136,135,134,136,133,132,137,134,133,136,138,136,136,139,134,134,138,135,134,140,136,133,139,139,132,135,136,135,136,140,134,136,136,139,132,134,136,133,133,138,140,132,139,140,132,137,139,129,135,139,141,131,139,138,136,139,139,133,137,137,134,136,140,139,135,139,138,134,136,136,135,135,138,137,136,140,141,132,138,141,133,144,146,139,142,142,139,136,133,136,127,139,135,129,139,136,130,132,131,137,126,133,132,124,130,131,130,129,136,132,127,135,131,133,140,133,136,138,142,142,143,141,145,134,143,144,139,144,147,143,140,144,144,141,144,149,140,141,141,139,140,140,139,141,138,141,134,144,140,138,140,141,142,138,144,140,135,142,141,139,141,141,135,143,137,138,132,144,138,134,143,138,136,139,142,133,140,138,141,130,143,137,133,141,134,135,136,137,135,132,142,133,135,139,139,133,136,137,161,2
118,117,118,116,113,123,122,118,121,118,111,117,115,116,118,120,121,110,117,124,111,117,118,113,120,114,122,117,117,121,117,117,126,118,121,116,123,114,120,120,113,118,117,112,122,117,124,118,120,120,119,122,122,120,119,124,118,121,123,116,116,118,122,116,124,122,126,122,126,116,121,116,125,119,117,121,119,118,123,118,113,118,119,114,120,117,111,113,110,117,110,122,118,115,118,118,119,116,123,126,126,127,125,117,125,126,126,128,129,121,129,123,130,122,128,126,126,140,148,146,168,166,172,176,172,183,175,172,178,177,172,181,156,155,139,131,125,130,128,127,129,130,125,120,127,121,124,125,129,119,124,124,124,116,119,114,113,122,112,121,117,117,118,111,118,119,115,121,119,114,116,125,114,120,119,110,113,117,117,114,120,115,117,117,125,116,122,123,119,116,123,119,113,122,121,119,116,124,118,115,123,119,117,118,121,114,121,117,123,119,122,121,121,120,126,115,116,120,120,116,118,121,113,122,122,118,122,121,121,119,124,116,121,121,116,118,129,121,125,120,121,119,116,120,125,120,127,120,124,121,121,122,133,130,123,132,129,128,124,128,131,123,130,132,121,130,134,124,132,133,129,126,128,130,125,129,135,128,130,136,128,129,132,129,127,132,138,127,129,135,130,130,133,133,129,133,135,127,132,135,129,131,137,133,129,133,130,133,134,134,136,134,136,135,130,139,134,129,134,139,136,135,140,137,130,134,135,132,137,135,132,134,135,134,135,138,136,129,136,139,127,136,135,134,131,136,135,129,139,139,132,140,139,139,131,138,139,132,140,140,130,139,137,136,136,138,139,132,140,140,128,139,139,134,135,139,134,132,142,137,129,141,137,125,133,128,128,127,130,130,126,130,136,123,136,133,132,129,134,134,126,133,140,128,134,137,132,132,140,130,129,138,135,129,135,140,131,133,136,131,132,137,137,131,137,137,131,132,139,133,132,137,138,130,139,139,135,140,141,132,134,139,139,131,142,141,137,138,139,135,134,143,139,132,143,140,132,142,142,136,139,142,140,140,141,144,134,139,144,138,140,145,140,137,144,144,138,143,145,135,145,145,140,141,144,140,137,145,146,132,140,147,137,137,144,141,134,145,146,136,141,129,2
119,121,114,113,113,109,113,119,113,112,121,119,110,116,120,113,113,122,115,118,120,123,111,114,122,114,119,120,117,119,118,116,123,115,118,115,116,117,123,118,122,121,112,112,125,114,117,120,117,120,119,119,115,118,117,114,120,119,120,119,124,125,117,115,122,121,123,125,120,123,127,120,114,118,130,117,128,124,119,122,129,126,118,122,130,117,126,124,121,122,126,122,122,124,123,117,130,139,145,151,164,162,175,175,172,173,179,177,174,178,167,155,137,132,129,125,128,130,131,134,128,127,121,125,124,128,128,120,126,129,125,122,122,125,121,115,120,121,114,118,125,115,114,114,120,117,117,122,115,120,119,114,115,119,111,117,120,117,112,121,114,120,118,118,113,122,120,119,112,116,120,112,117,126,115,119,116,121,116,119,118,116,117,120,113,110,117,123,117,119,121,113,119,118,108,122,124,119,121,121,123,121,118,117,117,125,124,113,116,121,118,116,120,125,114,120,125,117,121,120,119,121,120,126,120,121,125,115,121,128,124,120,122,125,118,125,121,120,124,126,123,120,126,134,125,129,128,130,133,128,172,126,127,122,126,130,127,124,130,125,124,131,132,122,130,129,125,128,133,126,128,132,131,126,131,130,127,128,129,128,128,131,129,127,134,129,125,130,135,126,130,132,126,130,132,129,127,131,133,128,128,134,128,124,133,130,128,132,130,124,135,133,127,130,134,129,129,134,133,128,131,132,131,128,135,132,128,132,135,126,131,137,128,132,139,132,128,135,137,126,134,138,128,132,139,131,135,140,136,132,135,135,133,135,138,133,129,138,139,131,137,135,123,129,133,124,125,129,122,125,131,130,127,131,132,132,127,134,133,130,137,138,125,136,136,128,133,140,134,130,140,137,127,140,142,130,138,139,133,135,139,135,132,141,138,129,139,142,136,137,140,139,134,142,142,131,139,142,135,135,142,141,136,142,141,136,138,138,137,140,142,141,133,144,142,137,142,144,136,143,141,139,136,142,143,136,145,144,138,140,148,134,139,148,142,139,143,140,141,143,145,139,143,146,139,138,146,141,140,144,146,137,138,150,139,144,144,140,143,142,142,138,137,147,139,141,145,139,137,142,144,135,140,144,133,135,140,135,131,140,140,134,2
132,127,132,130,128,128,132,125,125,132,131,131,135,131,125,125,134,130,130,134,129,122,133,130,127,134,135,124,129,123,132,128,130,121,126,128,132,123,127,125,129,124,126,132,120,126,129,122,128,133,127,132,135,134,138,133,136,133,134,133,133,133,134,132,133,136,138,129,129,139,131,136,141,128,131,130,134,134,139,137,129,137,139,137,135,135,133,129,131,139,124,132,138,130,137,132,135,129,136,135,128,132,140,131,135,134,133,128,132,137,132,133,135,128,133,133,134,132,138,134,130,133,131,134,133,139,135,139,146,152,164,171,172,178,179,177,178,179,186,180,176,165,152,137,135,130,132,133,131,127,125,126,128,133,131,134,128,123,125,124,123,123,126,122,133,128,125,125,126,133,121,127,124,122,125,126,123,128,123,120,121,116,124,114,117,123,120,121,125,119,118,121,126,119,121,119,115,123,123,115,120,121,119,111,122,124,121,123,119,119,119,118,119,119,117,121,124,119,120,118,124,116,122,122,119,121,110,119,122,116,123,120,119,118,119,125,119,124,125,121,126,123,128,124,121,124,119,121,125,121,0,129,131,138,131,131,137,129,129,136,134,131,131,136,131,128,136,129,129,133,134,126,135,130,131,131,134,133,129,132,131,128,131,136,131,131,134,127,127,135,129,129,130,133,131,130,136,131,123,138,136,132,134,136,131,132,135,135,132,140,135,131,137,140,131,134,138,134,131,134,139,127,137,135,134,133,141,135,132,138,135,130,138,135,129,136,136,132,133,134,133,132,138,136,133,135,134,133,137,136,137,136,139,139,131,140,136,133,135,140,137,132,139,137,133,135,139,133,138,141,137,134,140,138,134,136,140,135,135,137,133,128,136,128,126,137,129,129,136,136,132,130,133,134,126,130,128,121,126,132,123,128,131,130,128,135,131,131,137,135,128,137,136,133,135,139,138,134,133,138,135,135,137,137,130,139,138,131,136,142,131,138,139,136,137,138,135,137,137,138,138,141,143,137,138,140,141,134,138,144,139,140,146,135,137,139,141,140,141,142,141,140,146,137,140,147,139,141,143,142,141,145,144,138,142,144,141,142,145,143,139,147,146,137,134,140,138,132,135,140,137,138,140,135,137,146,135,137,140,144,134,0,2
125,120,127,130,124,129,129,122,123,130,124,126,129,127,125,125,126,125,119,125,125,125,125,123,121,123,123,123,126,127,126,124,121,123,122,125,120,119,122,121,123,117,125,121,117,120,124,120,120,127,119,120,124,124,117,119,124,118,123,128,121,122,127,124,117,118,125,123,125,125,119,123,138,139,148,155,165,164,172,184,173,182,175,182,182,187,177,174,178,178,167,166,151,137,119,127,119,118,122,122,119,116,129,119,115,120,113,112,121,119,113,114,114,115,102,110,105,99,106,108,103,106,104,101,103,103,102,103,108,103,104,110,109,101,102,103,104,104,101,102,100,105,100,105,97,108,101,102,103,104,99,104,104,107,106,111,97,106,108,98,102,105,101,99,105,102,108,106,104,100,104,106,110,101,106,100,106,103,106,105,109,102,102,111,110,107,110,112,110,111,107,110,113,104,106,113,106,116,110,117,105,109,104,110,121,108,118,120,111,109,113,108,110,124,118,124,121,126,123,125,123,129,121,124,129,122,123,129,121,127,126,124,127,129,129,124,124,129,121,117,120,114,117,127,121,117,118,114,111,121,116,125,122,127,126,121,129,128,121,127,129,126,129,132,128,119,131,127,122,128,127,119,126,125,121,126,128,127,125,127,128,123,126,127,127,124,130,131,124,126,130,122,125,128,125,123,130,127,119,134,127,122,128,132,125,125,130,131,121,127,131,121,131,131,126,130,129,125,128,129,127,127,130,130,129,131,129,126,125,128,132,129,133,134,130,132,136,129,129,138,135,123,132,126,117,125,120,125,118,125,126,120,119,127,122,124,126,127,127,127,129,122,130,130,122,126,129,124,127,129,127,128,128,128,126,127,131,127,129,131,128,130,133,128,123,133,132,125,134,136,127,129,133,135,126,136,133,131,130,134,130,133,134,131,130,133,133,130,137,134,125,137,136,132,135,136,125,133,136,132,129,138,137,135,136,137,128,136,138,131,134,139,133,132,140,136,132,139,137,130,136,141,134,133,143,137,133,138,141,137,137,142,138,133,144,141,134,135,139,138,142,138,137,139,141,138,131,134,138,131,135,134,133,132,135,133,137,137,138,135,135,138,135,132,137,136,130,138,140,132,138,141,137,138,139,140,136,140,140,137,141,129,2
122,124,119,118,116,123,123,121,120,119,121,113,116,126,119,119,119,119,115,122,123,124,120,123,114,116,124,115,110,114,123,120,120,117,118,120,120,121,115,117,120,117,125,123,121,119,119,114,118,116,119,116,117,124,115,116,125,117,120,124,120,115,119,114,116,120,120,120,118,120,114,118,121,119,123,126,137,144,150,151,168,162,176,178,181,174,184,185,185,185,183,175,189,183,185,179,182,172,182,175,179,176,174,167,148,137,139,122,120,121,119,111,121,117,116,114,121,111,111,111,115,104,109,103,98,107,105,98,102,104,97,95,104,99,101,101,94,106,102,97,99,98,94,100,105,97,99,100,91,96,102,100,97,97,102,102,95,97,101,97,95,92,100,99,98,97,93,99,101,95,100,100,95,94,100,94,103,101,93,99,102,101,98,102,98,100,103,96,101,102,102,96,103,103,97,102,108,100,107,101,108,103,105,103,101,106,104,110,102,111,99,107,112,103,110,110,107,111,105,105,103,112,103,108,101,108,106,104,107,110,105,107,109,113,110,116,112,115,107,111,103,107,106,100,98,102,102,98,108,101,128,141,130,134,136,132,133,135,139,133,135,132,132,135,137,133,132,133,135,131,138,136,128,136,136,130,133,137,132,132,134,134,128,132,136,128,128,137,131,127,133,135,125,135,135,127,128,132,132,126,132,132,121,134,135,126,131,132,125,128,134,127,121,133,133,124,130,134,124,129,131,133,128,130,130,123,132,132,125,121,127,126,115,127,125,117,127,126,121,125,130,125,123,131,126,123,130,129,125,127,136,124,124,134,129,119,128,128,119,126,125,118,125,125,128,122,127,125,118,126,133,119,128,129,123,121,131,129,124,130,128,121,132,131,123,130,133,121,136,127,125,129,129,124,128,130,120,136,131,126,131,137,126,131,134,130,131,136,125,132,134,129,131,131,131,136,139,129,136,135,124,137,132,133,131,136,130,134,136,130,137,138,131,142,135,133,139,138,135,136,139,132,139,143,133,135,141,136,134,143,137,134,139,137,135,138,137,137,134,138,139,138,141,142,134,139,140,141,137,143,142,133,143,140,139,141,143,140,142,144,135,136,141,139,136,144,141,136,146,145,138,137,140,127,122,131,130,124,132,129,126,129,2
136,131,128,133,125,128,130,131,127,132,136,130,138,129,135,130,137,128,128,128,130,128,129,124,129,128,126,128,128,134,135,128,129,128,125,126,132,133,133,128,129,125,132,134,126,126,129,121,127,125,126,124,130,128,126,122,129,116,128,127,125,123,125,125,124,128,130,123,128,126,124,126,125,123,121,127,125,125,127,131,137,141,153,153,163,173,173,177,173,175,166,176,172,169,154,141,134,127,127,125,124,123,123,126,125,130,126,127,127,125,117,122,129,115,121,124,121,116,116,117,112,122,118,117,116,121,115,113,113,116,107,119,111,113,107,119,104,114,113,117,111,115,109,111,111,113,113,116,116,115,119,122,126,118,124,123,119,117,126,120,124,120,118,111,114,114,116,114,117,116,112,117,110,111,113,118,111,120,118,118,117,114,117,107,114,116,112,110,117,114,112,116,112,118,119,119,110,120,119,112,118,120,110,110,119,107,111,113,111,114,114,121,114,121,113,123,116,115,115,110,116,125,116,117,120,118,115,124,118,123,126,126,128,115,125,118,120,128,127,120,124,129,117,117,129,120,127,123,126,122,102,135,139,144,137,137,140,136,134,143,144,136,138,141,137,133,136,136,133,137,134,132,135,135,136,128,133,139,127,134,138,128,131,138,130,129,139,131,129,136,132,129,130,131,129,132,134,132,132,131,136,123,133,133,128,127,136,129,130,132,132,124,134,131,129,131,132,125,130,135,131,126,132,132,124,133,130,124,128,126,128,122,130,125,119,127,128,125,124,136,127,126,130,127,119,126,118,114,111,118,118,114,118,121,112,120,121,115,118,121,119,120,122,124,118,120,127,117,123,127,127,123,125,129,123,128,130,125,126,129,126,132,132,133,122,129,131,128,129,131,129,126,132,131,123,131,133,128,132,134,129,128,138,131,128,134,130,129,131,132,131,128,137,130,127,134,135,130,136,135,130,137,136,137,132,140,136,128,135,134,129,133,141,135,134,137,136,134,136,142,130,135,137,136,132,142,133,135,137,140,130,137,139,138,139,140,139,133,140,141,132,139,141,136,140,146,137,137,140,136,131,135,138,133,136,137,133,131,137,136,128,135,132,126,134,132,129,128,134,130,128,136,133,125,136,137,127,134,134,132,135,135,2
118,116,126,119,123,121,123,118,119,124,114,119,125,121,116,119,121,116,125,121,117,121,116,119,120,122,125,119,126,121,123,121,124,118,120,122,124,116,126,125,116,123,120,123,121,122,120,121,122,132,117,123,121,125,123,126,130,120,125,127,123,125,118,119,122,128,124,119,119,125,119,123,128,117,122,125,117,127,124,125,120,121,123,120,119,120,124,123,131,122,121,124,123,121,123,130,136,145,148,150,160,177,177,179,186,183,177,180,176,184,173,180,176,174,179,178,163,159,148,133,133,135,132,132,126,132,126,130,129,125,121,129,125,127,123,120,110,111,114,110,115,108,114,108,111,112,105,115,112,109,109,109,114,110,113,109,103,104,111,103,105,110,109,104,109,112,103,108,106,103,110,104,113,103,110,117,106,107,110,105,110,115,105,104,110,105,104,112,104,111,105,113,115,106,107,109,103,110,110,104,115,109,114,114,111,106,109,114,114,113,107,113,104,112,115,108,110,113,117,108,119,114,113,117,111,115,110,117,111,107,114,116,113,115,115,114,117,114,122,114,117,108,115,113,118,110,111,116,111,98,110,117,127,127,124,121,130,125,122,128,127,120,125,126,125,124,130,127,121,130,129,120,126,136,127,127,134,130,130,131,130,126,129,133,125,127,133,128,128,133,132,128,131,133,128,131,136,128,129,134,132,130,134,134,131,133,133,131,130,133,135,128,134,138,127,129,136,129,133,136,129,132,135,133,132,134,137,134,134,137,131,126,139,134,130,138,137,128,135,135,130,135,137,135,133,139,137,132,138,135,138,142,143,145,134,137,140,132,139,137,132,136,139,136,133,138,138,127,135,129,121,123,132,124,121,131,132,125,133,132,124,134,131,126,133,132,130,132,134,130,129,131,134,127,133,138,132,129,134,134,129,133,139,132,132,137,130,133,137,133,131,139,134,132,133,135,135,133,139,137,132,136,138,133,136,138,135,133,140,138,132,141,139,133,137,137,138,137,138,138,133,139,141,133,137,142,136,131,142,138,133,143,136,131,142,142,136,138,144,140,137,144,142,136,140,143,140,138,144,141,137,143,144,135,143,147,137,142,145,142,141,146,143,140,145,144,139,143,145,142,142,146,144,138,146,146,141,141,140,131,132,134,2
